# dimensionless total lensed [l(l+1)/2pi] C_l's
# for l=2 to 2500, i.e. number of multipoles equal to 2499
#
# -> if you prefer output in CAMB/HealPix/LensPix units/order, set 'format' to 'camb' in input file
# -> if you don't want to see such a header, set 'headers' to 'no' in input file
# -> for CMB lensing (phi), these are C_l^phi-phi for the lensing potential.
#    Remember the conversion factors:
#    C_l^dd (deflection) = l(l+1) C_l^phi-phi
#    C_l^gg (shear/convergence) = 1/4 (l(l+1))^2 C_l^phi-phi
#
# 1:l     2:TT                     3:EE                     4:TE                     5:BB                     6:phiphi                 7:TPhi                   8:Ephi               
    2       1.538872536036e-10       4.308840537210e-15       3.243953317015e-13       2.217980977323e-19       7.749571171406e-09       5.418129581466e-10      -1.847791041394e-12 
    3       1.430525094068e-10       5.351016071057e-15       3.758343007340e-13       4.436871852708e-19       4.766001493716e-09       3.801340502791e-10      -1.373345631115e-12 
    4       1.335123641171e-10       4.442950037625e-15       3.558260013609e-13       7.396790852134e-19       3.306611200826e-09       2.861948976355e-10      -8.686700022333e-13 
    5       1.264404859820e-10       2.838412046950e-15       3.046058823945e-13       1.109890277686e-18       2.464012847240e-09       2.252497732426e-10      -4.536371480578e-13 
    6       1.214998985114e-10       1.539361333593e-15       2.458494854986e-13       1.554462310880e-18       1.922277146896e-09       1.828639349515e-10      -1.586409004079e-13 
    7       1.182049096233e-10       8.424796855805e-16       1.933834593168e-13       2.073559275066e-18       1.549191015042e-09       1.519588193757e-10       1.876986953471e-14 
    8       1.160816423016e-10       5.707367256956e-16       1.533283418244e-13       2.667364938789e-18       1.279173480461e-09       1.285769173593e-10       9.878170112215e-14 
    9       1.148444454200e-10       4.655379255004e-16       1.270375146662e-13       3.336079628781e-18       1.076278751433e-09       1.104015331224e-10       1.097577376600e-13 
   10       1.142998743931e-10       3.907537398190e-16       1.130112114155e-13       4.079916941080e-18       9.193208689375e-10       9.600992522612e-11       8.118560967215e-14 
   11       1.142272948327e-10       3.278603491590e-16       1.085025830280e-13       4.899100373870e-18       7.882684060878e-10       8.512742653621e-11       3.886558630972e-14 
   12       1.145434711869e-10       2.939658440889e-16       1.105478920883e-13       5.793859972436e-18       6.892802146275e-10       7.541328595940e-11      -1.055167588261e-16 
   13       1.151549032340e-10       2.913815264959e-16       1.164956176254e-13       6.764429073584e-18       6.079373890070e-10       6.718616668204e-11      -2.583925366634e-14 
   14       1.160061636291e-10       3.083005229050e-16       1.243426143800e-13       7.811041230841e-18       5.402059324548e-10       6.032174175979e-11      -3.582763632739e-14 
   15       1.170684107539e-10       3.368403519900e-16       1.328190857706e-13       8.933927393173e-18       4.831582957699e-10       5.447468457196e-11      -3.312172693976e-14 
   16       1.182679269027e-10       3.793140182676e-16       1.414691133422e-13       1.013331339902e-17       4.346182204826e-10       4.936610768056e-11      -2.332227643200e-14 
   17       1.196615588538e-10       4.415361750214e-16       1.502185788578e-13       1.140941783469e-17       3.929492882866e-10       4.493963439456e-11      -1.192795693599e-14 
   18       1.211358203740e-10       5.259422928274e-16       1.591992610335e-13       1.276245013388e-17       3.567645583652e-10       4.104712786744e-11      -3.421016448938e-15 
   19       1.227009211973e-10       6.315703567996e-16       1.686386326329e-13       1.419261004488e-17       3.254845037029e-10       3.764892013493e-11       5.585416272843e-16 
   20       1.243680897530e-10       7.559884654088e-16       1.787171850074e-13       1.570008499043e-17       2.979231677285e-10       3.466612595827e-11      -3.366691323873e-16 
   21       1.261273042117e-10       8.991910661685e-16       1.892176594181e-13       1.728505195883e-17       2.736503009811e-10       3.204584196446e-11      -4.603643941438e-15 
   22       1.279324530012e-10       1.061653035477e-15       1.997301852466e-13       1.894767472180e-17       2.520841689599e-10       2.970057807679e-11      -9.744400644283e-15 
   23       1.298013773269e-10       1.243332722180e-15       2.099719418273e-13       2.068810733912e-17       2.329379405760e-10       2.760109671565e-11      -1.400805239316e-14 
   24       1.317470764871e-10       1.444055975374e-15       2.196581944692e-13       2.250649091409e-17       2.157764722284e-10       2.570927979809e-11      -1.596033871040e-14 
   25       1.337575093537e-10       1.664970012952e-15       2.284926744200e-13       2.440295755962e-17       2.003686046103e-10       2.399631994602e-11      -1.565148123962e-14 
   26       1.358001386214e-10       1.907719603635e-15       2.361997675376e-13       2.637762819184e-17       1.864145066126e-10       2.242325724040e-11      -1.375327778124e-14 
   27       1.378842570229e-10       2.173943487637e-15       2.427592297671e-13       2.843062060655e-17       1.738426659783e-10       2.098814647135e-11      -1.100520864549e-14 
   28       1.400170469340e-10       2.465385933143e-15       2.482699048172e-13       3.056204234744e-17       1.625015087109e-10       1.968602002134e-11      -8.368201839813e-15 
   29       1.421912791552e-10       2.783803954008e-15       2.528561555989e-13       3.277199087517e-17       1.521166588667e-10       1.849840356223e-11      -6.832171520099e-15 
   30       1.444111694192e-10       3.130457631353e-15       2.565344725187e-13       3.506056583701e-17       1.426313567042e-10       1.741913770848e-11      -6.473198690090e-15 
   31       1.466729403087e-10       3.506411363601e-15       2.592967078618e-13       3.742786086304e-17       1.339756332807e-10       1.643587121615e-11      -7.018478805044e-15 
   32       1.489631507551e-10       3.912631336712e-15       2.611181329037e-13       3.987396262467e-17       1.260130881136e-10       1.552834232987e-11      -8.095458620910e-15 
   33       1.512831230829e-10       4.349901560939e-15       2.618651758760e-13       4.239895976714e-17       1.187006096940e-10       1.469069988901e-11      -9.301329399436e-15 
   34       1.536310698825e-10       4.818860017004e-15       2.613508520033e-13       4.500293700762e-17       1.119736739223e-10       1.391577335248e-11      -1.014424729039e-14 
   35       1.559999318216e-10       5.320115747414e-15       2.593923606405e-13       4.768597405222e-17       1.057324576837e-10       1.319242213701e-11      -1.016940309329e-14 
   36       1.583961343428e-10       5.854615057633e-15       2.559357553452e-13       5.044815015153e-17       9.996093745715e-11       1.251911405375e-11      -9.485664215857e-15 
   37       1.608258181876e-10       6.423395168719e-15       2.509740408489e-13       5.328954112815e-17       9.464120342524e-11       1.189415920243e-11      -8.423264319214e-15 
   38       1.632889600688e-10       7.027486461029e-15       2.445153802120e-13       5.621021823034e-17       8.971744989101e-11       1.131160674859e-11      -7.402282073739e-15 
   39       1.657814914017e-10       7.667850105706e-15       2.365764418386e-13       5.921024732840e-17       8.511614080266e-11       1.076365570183e-11      -6.826182824901e-15 
   40       1.683042600315e-10       8.345166819609e-15       2.271573695087e-13       6.228968605930e-17       8.082328496442e-11       1.024984176064e-11      -6.703577963935e-15 
   41       1.708559291203e-10       9.059975084202e-15       2.162598894422e-13       6.544858578751e-17       7.682765537183e-11       9.770318422347e-12      -6.907949866833e-15 
   42       1.734299163135e-10       9.812721463920e-15       2.038945671242e-13       6.868699235445e-17       7.309772756399e-11       9.323138855713e-12      -7.276909627163e-15 
   43       1.760182099447e-10       1.060381830626e-14       1.900653182604e-13       7.200494314259e-17       6.959335482324e-11       8.905166953913e-12      -7.647293408480e-15 
   44       1.786254284009e-10       1.143385100716e-14       1.747162650075e-13       7.540245721765e-17       6.630918546644e-11       8.515586692679e-12      -7.979136022689e-15 
   45       1.812582986415e-10       1.230342635968e-14       1.577689534771e-13       7.887954208155e-17       6.324190760362e-11       8.153176250687e-12      -8.266362930071e-15 
   46       1.839214978937e-10       1.321311381436e-14       1.391361796673e-13       8.243619612540e-17       6.037721246863e-11       7.815196228629e-12      -8.502693849380e-15 
   47       1.866174255431e-10       1.416344412639e-14       1.187213676586e-13       8.607240842665e-17       5.768893686782e-11       7.497274811605e-12      -8.681647656502e-15 
   48       1.893466577065e-10       1.515485642724e-14       9.643616748971e-14       8.978815672692e-17       5.514712414464e-11       7.194673207511e-12      -8.801618302753e-15 
   49       1.921099947256e-10       1.618752495386e-14       7.226056561642e-14       9.358340116497e-17       5.274689501442e-11       6.906771729466e-12      -8.882783112331e-15 
   50       1.949065989207e-10       1.726148115211e-14       4.619865052605e-14       9.745808842852e-17       5.048624169502e-11       6.633650981177e-12      -8.954969143324e-15 
   51       1.977331737789e-10       1.837665710159e-14       1.826217265757e-14       1.014121531309e-16       4.835742732433e-11       6.374778667454e-12      -9.053255440931e-15 
   52       2.005837706771e-10       1.953288153132e-14      -1.152914782677e-14       1.054455175153e-16       4.634658343536e-11       6.128965178833e-12      -9.218236661613e-15 
   53       2.034522180832e-10       2.072997374241e-14      -4.315660463530e-14       1.095580960560e-16       4.443806740685e-11       5.894818444228e-12      -9.483499164913e-15 
   54       2.063405874119e-10       2.196806290169e-14      -7.663287661199e-14       1.137498113321e-16       4.262977683901e-11       5.672348042017e-12      -9.833661653483e-15 
   55       2.092525672470e-10       2.324734390810e-14      -1.119789298234e-13       1.180205817204e-16       4.092107161658e-11       5.461696165016e-12      -1.023600444259e-14 
   56       2.121909499659e-10       2.456798679052e-14      -1.492154897533e-13       1.223703167672e-16       3.930816025243e-11       5.262651504689e-12      -1.065204616321e-14 
   57       2.151575484184e-10       2.593013682858e-14      -1.883631231059e-13       1.267989170977e-16       3.778389694225e-11       5.074625769451e-12      -1.103727122125e-14 
   58       2.181531126059e-10       2.733391467346e-14      -2.294423196096e-13       1.313062743261e-16       3.633757861927e-11       4.896630202962e-12      -1.134085725689e-14 
   59       2.211778943845e-10       2.877926690002e-14      -2.724669164774e-13       1.358922828957e-16       3.495789196474e-11       4.727545900673e-12      -1.151835307510e-14 
   60       2.242336839509e-10       3.026547686025e-14      -3.174224027987e-13       1.405568790165e-16       3.364301455523e-11       4.567061396940e-12      -1.157376951089e-14 
   61       2.273220998719e-10       3.179154024707e-14      -3.642827124033e-13       1.453000106264e-16       3.239250499448e-11       4.414911699951e-12      -1.152679901078e-14 
   62       2.304439225420e-10       3.335629982703e-14      -4.130162972738e-13       1.501216265632e-16       3.120426500799e-11       4.270590391605e-12      -1.140088766785e-14 
   63       2.335990328292e-10       3.495844049107e-14      -4.635859836766e-13       1.550216768786e-16       3.007444327583e-11       4.133336105076e-12      -1.122340168015e-14 
   64       2.367863507211e-10       3.659648430516e-14      -5.159488282922e-13       1.600001131524e-16       2.899733926560e-11       4.002119002377e-12      -1.102579380890e-14 
   65       2.400045638649e-10       3.826898619214e-14      -5.700634975248e-13       1.650569003543e-16       2.796697632012e-11       3.875914273127e-12      -1.083697709499e-14 
   66       2.432546303286e-10       3.997518026195e-14      -6.259145450251e-13       1.701920546457e-16       2.698242414846e-11       3.754620327089e-12      -1.066144103208e-14 
   67       2.465376977717e-10       4.171446192008e-14      -6.834930337389e-13       1.754056141689e-16       2.604343496942e-11       3.638311460888e-12      -1.049678464329e-14 
   68       2.498543217965e-10       4.348619996513e-14      -7.427895317414e-13       1.806976288303e-16       2.514882517078e-11       3.526962604346e-12      -1.034007716011e-14 
   69       2.532044266885e-10       4.528973725155e-14      -8.037941788066e-13       1.860681609380e-16       2.429642583461e-11       3.420443826611e-12      -1.018783447387e-14 
   70       2.565872661580e-10       4.712439135246e-14      -8.664967529767e-13       1.915172858382e-16       2.348303326258e-11       3.318514842285e-12      -1.003599558735e-14 
   71       2.600013840808e-10       4.898945522234e-14      -9.308867371316e-13       1.970450925529e-16       2.270435950134e-11       3.220819517553e-12      -9.879899066248e-15 
   72       2.634453307793e-10       5.088409828803e-14      -9.969489023174e-13       2.026516849353e-16       2.195613517348e-11       3.126985713644e-12      -9.715719137494e-15 
   73       2.669200582818e-10       5.280704626907e-14      -1.064648928319e-12       2.083371839781e-16       2.123777298806e-11       3.036959213267e-12      -9.545145446929e-15 
   74       2.704269160266e-10       5.475684081045e-14      -1.133945130406e-12       2.141017271016e-16       2.054932130635e-11       2.950724261480e-12      -9.371563207399e-15 
   75       2.739669144243e-10       5.673193202575e-14      -1.204792662838e-12       2.199454683125e-16       1.989035137138e-11       2.868200871273e-12      -9.198682754042e-15 
   76       2.775407028488e-10       5.873067688653e-14      -1.277143483074e-12       2.258685788525e-16       1.925993414162e-11       2.789241734654e-12      -9.030549321101e-15 
   77       2.811485476278e-10       6.075133761183e-14      -1.350946315987e-12       2.318712478473e-16       1.865661712465e-11       2.713629133740e-12      -8.871552818722e-15 
   78       2.847903100336e-10       6.279208005754e-14      -1.426146618074e-12       2.379536829557e-16       1.807840121080e-11       2.641071851849e-12      -8.726437609762e-15 
   79       2.884654242737e-10       6.485097210586e-14      -1.502686541669e-12       2.441161110181e-16       1.752271750690e-11       2.571202084583e-12      -8.600312286592e-15 
   80       2.921732754560e-10       6.692606905660e-14      -1.580507655938e-12       2.503587703161e-16       1.698706517952e-11       2.503666591633e-12      -8.497337264555e-15 
   81       2.959144574958e-10       6.901569042256e-14      -1.659559732787e-12       2.566818843738e-16       1.647110351946e-11       2.438425178113e-12      -8.416503572046e-15 
   82       2.996896945088e-10       7.111818848904e-14      -1.739793428579e-12       2.630856847697e-16       1.597488260835e-11       2.375498653132e-12      -8.355135395008e-15 
   83       3.034994458632e-10       7.323186558208e-14      -1.821157677905e-12       2.695704196084e-16       1.549820382204e-11       2.314877870142e-12      -8.310132667278e-15 
   84       3.073438915769e-10       7.535497406907e-14      -1.903599708845e-12       2.761363540144e-16       1.504060890520e-11       2.256522383234e-12      -8.277956362517e-15 
   85       3.112229177157e-10       7.748571635931e-14      -1.987065058236e-12       2.827837706254e-16       1.460136904592e-11       2.200359103421e-12      -8.254613786141e-15 
   86       3.151361017905e-10       7.962224490457e-14      -2.071497586933e-12       2.895129700857e-16       1.417947395030e-11       2.146280954927e-12      -8.235643867246e-15 
   87       3.190826981553e-10       8.176266219972e-14      -2.156839495073e-12       2.963242715403e-16       1.377362091704e-11       2.094145531476e-12      -8.216102450536e-15 
   88       3.230616234043e-10       8.390502078324e-14      -2.243031337339e-12       3.032180131277e-16       1.338220391207e-11       2.043773752579e-12      -8.190547588252e-15 
   89       3.270718156758e-10       8.604734517762e-14      -2.330012025049e-12       3.101945541232e-16       1.300369584235e-11       1.994993849704e-12      -8.154242561980e-15 
   90       3.311134089840e-10       8.818770165357e-14      -2.417718799529e-12       3.172542806758e-16       1.263788791584e-11       1.947784161402e-12      -8.107013281938e-15 
   91       3.351867170549e-10       9.032413946148e-14      -2.506087282666e-12       3.243976018843e-16       1.228482547214e-11       1.902150366632e-12      -8.049971704721e-15 
   92       3.392918669448e-10       9.245467019056e-14      -2.595051504563e-12       3.316249487395e-16       1.194442712590e-11       1.858081493606e-12      -7.984355455764e-15 
   93       3.434287900392e-10       9.457726809812e-14      -2.684543918613e-12       3.389367746428e-16       1.161647973191e-11       1.815549255178e-12      -7.911531364419e-15 
   94       3.475972130527e-10       9.668987043875e-14      -2.774495416561e-12       3.463335559241e-16       1.130063335044e-11       1.774507384234e-12      -7.832998999027e-15 
   95       3.517966490273e-10       9.879037779369e-14      -2.864835343569e-12       3.538157923601e-16       1.099639621238e-11       1.734890969073e-12      -7.750394201987e-15 
   96       3.560263883324e-10       1.008766544000e-13      -2.955491513286e-12       3.613840076926e-16       1.070312968449e-11       1.696615788799e-12      -7.665492624831e-15 
   97       3.602854896637e-10       1.029465284799e-13      -3.046390222911e-12       3.690387501468e-16       1.042004323465e-11       1.659577648708e-12      -7.580213263294e-15 
   98       3.645727710425e-10       1.049977925700e-13      -3.137456268264e-12       3.767805929496e-16       1.014618939703e-11       1.623651715673e-12      -7.496621992389e-15 
   99       3.688870832505e-10       1.070282561916e-13      -3.228613832756e-12       3.846101310035e-16       9.880680803956e-12       1.588721774398e-12      -7.416513451023e-15 
  100       3.732281937824e-10       1.090359116623e-13      -3.319789265424e-12       3.925279692515e-16       9.623387240668e-12       1.554774161102e-12      -7.340081480173e-15 
  101       3.775960119597e-10       1.110187924909e-13      -3.410908726203e-12       4.005347336192e-16       9.374328428553e-12       1.521815961976e-12      -7.267066054741e-15 
  102       3.819903121573e-10       1.129749240835e-13      -3.501897372455e-12       4.086310751779e-16       9.133458453280e-12       1.489845981173e-12      -7.197156577331e-15 
  103       3.864107282269e-10       1.149023247072e-13      -3.592679384628e-12       4.168176706162e-16       8.900663421731e-12       1.458854438873e-12      -7.129990302403e-15 
  104       3.908567479196e-10       1.167990064533e-13      -3.683177991915e-12       4.250952227115e-16       8.675759118937e-12       1.428822669344e-12      -7.065150760434e-15 
  105       3.953277073080e-10       1.186629762015e-13      -3.773315497918e-12       4.334644608019e-16       8.458488665015e-12       1.399722819014e-12      -7.002166182074e-15 
  106       3.998227852097e-10       1.204922365834e-13      -3.863013306299e-12       4.419261412578e-16       8.248520172112e-12       1.371517544526e-12      -6.940507922304e-15 
  107       4.043409976094e-10       1.222847869463e-13      -3.952191946446e-12       4.504810479532e-16       8.045444401338e-12       1.344159710811e-12      -6.879588884594e-15 
