# dimensionless total [l(l+1)/2pi] C_l's
# for l=2 to 3000, i.e. number of multipoles equal to 2999
#
# -> if you prefer output in CAMB/HealPix/LensPix units/order, set 'format' to 'camb' in input file
# -> if you don't want to see such a header, set 'headers' to 'no' in input file
# -> for CMB lensing (phi), these are C_l^phi-phi for the lensing potential.
#    Remember the conversion factors:
#    C_l^dd (deflection) = l(l+1) C_l^phi-phi
#    C_l^gg (shear/convergence) = 1/4 (l(l+1))^2 C_l^phi-phi
#
# 1:l     2:TT                     3:EE                     4:TE                     5:BB                     6:phiphi                 7:TPhi                   8:Ephi               
    2       1.339728452144e-10       4.145498046123e-15       3.794715088202e-13       0.000000000000e+00       8.622318389501e-09       4.224177464611e-10      -1.831272094469e-12 
    3       1.265250123580e-10       5.368855678381e-15       4.165102766428e-13       0.000000000000e+00       5.268883618667e-09       2.981040691244e-10      -1.398710215671e-12 
    4       1.198466144083e-10       4.719016367715e-15       3.841164354278e-13       0.000000000000e+00       3.646842561506e-09       2.247912449728e-10      -9.278509513339e-13 
    5       1.150116864738e-10       3.205430034734e-15       3.239849298210e-13       0.000000000000e+00       2.713617645678e-09       1.768958318453e-10      -5.274309307440e-13 
    6       1.117732597339e-10       1.817821684446e-15       2.589628616935e-13       0.000000000000e+00       2.114413626040e-09       1.433961330573e-10      -2.283539085563e-13 
    7       1.097298300389e-10       9.794733926239e-16       2.019846316097e-13       0.000000000000e+00       1.702057208386e-09       1.188390419780e-10      -3.342859381036e-14 
    8       1.086148033593e-10       6.179440112862e-16       1.584865674730e-13       0.000000000000e+00       1.403987503303e-09       1.002704070882e-10       7.029337151050e-14 
    9       1.081741936298e-10       4.902074053706e-16       1.294997023134e-13       0.000000000000e+00       1.180256033847e-09       8.593276171747e-11       1.040949051560e-13 
   10       1.082288041298e-10       4.203316512885e-16       1.134524767644e-13       0.000000000000e+00       1.007264246461e-09       7.461691876203e-11       9.219923967745e-14 
   11       1.086696708786e-10       3.548506411896e-16       1.074831424084e-13       0.000000000000e+00       8.620350767229e-10       6.617886364385e-11       5.769681698266e-14 
   12       1.093736406145e-10       3.063327158537e-16       1.084405006649e-13       0.000000000000e+00       7.532702755476e-10       5.842038797977e-11       1.834537648402e-14 
   13       1.103082792272e-10       2.891877065304e-16       1.136011503254e-13       0.000000000000e+00       6.639654747177e-10       5.197538985718e-11      -1.372562932652e-14 
   14       1.114470624061e-10       2.983214188486e-16       1.209140655096e-13       0.000000000000e+00       5.896628966235e-10       4.669457647400e-11      -3.268325400108e-14 
   15       1.127480697504e-10       3.211841346822e-16       1.289824495517e-13       0.000000000000e+00       5.271216401819e-10       4.203482014278e-11      -3.846931508573e-14 
   16       1.141254556080e-10       3.528847943778e-16       1.370900951334e-13       0.000000000000e+00       4.739407073858e-10       3.801385673153e-11      -3.394311047359e-14 
   17       1.156194834971e-10       3.978679457873e-16       1.451859822720e-13       0.000000000000e+00       4.283170918112e-10       3.453349809062e-11      -2.385128044670e-14 
   18       1.172109435561e-10       4.625029378895e-16       1.534053247121e-13       0.000000000000e+00       3.887209094984e-10       3.152386310380e-11      -1.307653161996e-14 
   19       1.188987241642e-10       5.481729933001e-16       1.619794971913e-13       0.000000000000e+00       3.545118962953e-10       2.892481096783e-11      -4.532181917213e-15 
   20       1.206423327463e-10       6.537769948792e-16       1.711431818997e-13       0.000000000000e+00       3.243847226609e-10       2.660000359124e-11      -4.653608412017e-16 
   21       1.224423758220e-10       7.782674775401e-16       1.808896865859e-13       0.000000000000e+00       2.978647515150e-10       2.452719177327e-11      -7.810787850101e-16 
   22       1.242849812423e-10       9.203301167741e-16       1.910558252831e-13       0.000000000000e+00       2.743127873991e-10       2.268825964012e-11      -4.181500348058e-15 
   23       1.261838279942e-10       1.080266793252e-15       2.013352229272e-13       0.000000000000e+00       2.534130407869e-10       2.106289843022e-11      -8.999814990099e-15 
   24       1.281386274281e-10       1.258655194303e-15       2.113194619302e-13       0.000000000000e+00       2.346878017352e-10       1.960837576790e-11      -1.327645392583e-14 
   25       1.301410489660e-10       1.455392199725e-15       2.206650024011e-13       0.000000000000e+00       2.178826950058e-10       1.829946967339e-11      -1.593939822005e-14 
   26       1.321684026937e-10       1.670310843424e-15       2.290559605005e-13       0.000000000000e+00       2.026684812642e-10       1.710514317861e-11      -1.633019514988e-14 
   27       1.342319146919e-10       1.904863695401e-15       2.363944861332e-13       0.000000000000e+00       1.889661208649e-10       1.601849549096e-11      -1.481374192364e-14 
   28       1.363390972151e-10       2.161242690177e-15       2.426703344678e-13       0.000000000000e+00       1.766094238165e-10       1.502746494870e-11      -1.228929125697e-14 
   29       1.384833083189e-10       2.441714734258e-15       2.479097172023e-13       0.000000000000e+00       1.652981366435e-10       1.411034022522e-11      -9.794015516612e-15 
   30       1.406665639123e-10       2.747551810946e-15       2.521863944294e-13       0.000000000000e+00       1.549697074005e-10       1.326627112691e-11      -7.797088411456e-15 
   31       1.428820228571e-10       3.079676823255e-15       2.556207638748e-13       0.000000000000e+00       1.455472336084e-10       1.249481414836e-11      -6.641944286901e-15 
   32       1.451138347265e-10       3.438936179833e-15       2.583259751551e-13       0.000000000000e+00       1.368813842442e-10       1.178955670701e-11      -6.596011095859e-15 
   33       1.473640821872e-10       3.826133244807e-15       2.602167515880e-13       0.000000000000e+00       1.289249263662e-10       1.114632292166e-11      -7.383558951533e-15 
   34       1.496334579552e-10       4.241993217261e-15       2.611285212559e-13       0.000000000000e+00       1.216074311505e-10       1.055674345178e-11      -8.468282859656e-15 
   35       1.519181400767e-10       4.687210903734e-15       2.608881459357e-13       0.000000000000e+00       1.148199981363e-10       1.000914052093e-11      -9.293247333846e-15 
   36       1.542271258540e-10       5.162673502427e-15       2.593954551820e-13       0.000000000000e+00       1.085449589872e-10       9.501268304113e-12      -9.729516806134e-15 
   37       1.565695227165e-10       5.669308261060e-15       2.565680651971e-13       0.000000000000e+00       1.027625600321e-10       9.031248999579e-12      -9.777297012215e-15 
   38       1.589491268901e-10       6.208021132303e-15       2.523193618676e-13       0.000000000000e+00       9.741174494999e-11       8.593798157850e-12      -9.448401110582e-15 
   39       1.613650522406e-10       6.779650899261e-15       2.465768555040e-13       0.000000000000e+00       9.241215766027e-11       8.182212784869e-12      -8.785996166445e-15 
   40       1.638154564803e-10       7.384817181353e-15       2.393455771099e-13       0.000000000000e+00       8.774844319620e-11       7.795913672951e-12      -7.929474178921e-15 
   41       1.662939968101e-10       8.024017539041e-15       2.306657468497e-13       0.000000000000e+00       8.340831400455e-11       7.434950068300e-12      -7.073400443645e-15 
   42       1.687881143224e-10       8.697661922841e-15       2.205970361855e-13       0.000000000000e+00       7.935739856514e-11       7.097783696425e-12      -6.453104597833e-15 
   43       1.712843016601e-10       9.406143854533e-15       2.091947699530e-13       0.000000000000e+00       7.555194848427e-11       6.782018923479e-12      -6.279717359588e-15 
   44       1.737871882075e-10       1.015009286991e-14       1.964270568766e-13       0.000000000000e+00       7.198609039059e-11       6.487194762815e-12      -6.515261767779e-15 
   45       1.763054668968e-10       1.093019198231e-14       1.822336760367e-13       0.000000000000e+00       6.865617954185e-11       6.212629004323e-12      -7.031570854350e-15 
   46       1.788464046335e-10       1.174710774804e-14       1.665482673672e-13       0.000000000000e+00       6.554661308151e-11       5.956543187011e-12      -7.669845233655e-15 
   47       1.814156543685e-10       1.260148987996e-14       1.492978569952e-13       0.000000000000e+00       6.262889778518e-11       5.715978680639e-12      -8.238841228779e-15 
   48       1.840169499690e-10       1.349390153855e-14       1.304130832039e-13       0.000000000000e+00       5.987041858183e-11       5.487672825717e-12      -8.564608770963e-15 
   49       1.866515276172e-10       1.442458787036e-14       1.098633905162e-13       0.000000000000e+00       5.726584221660e-11       5.271175209668e-12      -8.660512102935e-15 
   50       1.893182184306e-10       1.539364155953e-14       8.763094087267e-14       0.000000000000e+00       5.481296417959e-11       5.066465649590e-12      -8.602022827614e-15 
   51       1.920133622885e-10       1.640106262702e-14       6.370084871914e-14       0.000000000000e+00       5.250335426590e-11       4.873036753832e-12      -8.480152661698e-15 
   52       1.947306139245e-10       1.744675450737e-14       3.806125229652e-14       0.000000000000e+00       5.032191925948e-11       4.689858986207e-12      -8.402271652452e-15 
   53       1.974634587591e-10       1.853060264256e-14       1.070078526858e-14       0.000000000000e+00       4.825163932772e-11       4.515732925102e-12      -8.465684245970e-15 
   54       2.002139662424e-10       1.965274302091e-14      -1.839993577851e-14       0.000000000000e+00       4.629021371250e-11       4.350532801440e-12      -8.668497013533e-15 
   55       2.029859494180e-10       2.081335585337e-14      -4.926186351645e-14       0.000000000000e+00       4.443693318018e-11       4.194221839528e-12      -8.977257232715e-15 
   56       2.057823737207e-10       2.201258864769e-14      -8.190514867424e-14       0.000000000000e+00       4.268766554411e-11       4.046474771463e-12      -9.351872124465e-15 
   57       2.086052766851e-10       2.325055574499e-14      -1.163491777488e-13       0.000000000000e+00       4.103463527560e-11       3.906659135930e-12      -9.745284841446e-15 
   58       2.114556876539e-10       2.452733785635e-14      -1.526126107158e-13       0.000000000000e+00       3.946620311486e-11       3.773816576993e-12      -1.010315045637e-14 
   59       2.143340341989e-10       2.584290974179e-14      -1.907070974112e-13       0.000000000000e+00       3.797006868376e-11       3.646932409843e-12      -1.037617910248e-14 
   60       2.172416539547e-10       2.719690468705e-14      -2.306166369975e-13       0.000000000000e+00       3.654424737405e-11       3.525859894555e-12      -1.056124857817e-14 
   61       2.201794925982e-10       2.858879441509e-14      -2.723134832806e-13       0.000000000000e+00       3.518825764342e-11       3.410577935955e-12      -1.066928363652e-14 
   62       2.231475855164e-10       3.001795329447e-14      -3.157638716166e-13       0.000000000000e+00       3.389981992485e-11       3.300912942160e-12      -1.071353153669e-14 
   63       2.261449940136e-10       3.148365544016e-14      -3.609278423400e-13       0.000000000000e+00       3.267475227143e-11       3.196529895125e-12      -1.070966742726e-14 
   64       2.291697415193e-10       3.298507181421e-14      -4.077590641921e-13       0.000000000000e+00       3.150686600129e-11       3.096923421202e-12      -1.067589972954e-14 
   65       2.322197702447e-10       3.452133993076e-14      -4.562155571783e-13       0.000000000000e+00       3.038967279325e-11       3.001559757813e-12      -1.062902113234e-14 
   66       2.352961899275e-10       3.609179664144e-14      -5.062948972182e-13       0.000000000000e+00       2.932216057952e-11       2.910357656029e-12      -1.057135280609e-14 
   67       2.384006051128e-10       3.769578961288e-14      -5.580061736224e-13       0.000000000000e+00       2.830405795711e-11       2.823293663557e-12      -1.050121541189e-14 
   68       2.415341208246e-10       3.933260822038e-14      -6.113598734616e-13       0.000000000000e+00       2.733407799228e-11       2.740255594919e-12      -1.041673163359e-14 
   69       2.446973073173e-10       4.100148267963e-14      -6.663680098734e-13       0.000000000000e+00       2.640986453538e-11       2.661037822872e-12      -1.031581815164e-14 
   70       2.478901648266e-10       4.270158317823e-14      -7.230442503706e-13       0.000000000000e+00       2.552793853575e-11       2.585336569839e-12      -1.019617761692e-14 
   71       2.511120883218e-10       4.443201900736e-14      -7.814040451481e-13       0.000000000000e+00       2.468364435653e-11       2.512745199329e-12      -1.005529062465e-14 
   72       2.543623947900e-10       4.619183746931e-14      -8.414554426926e-13       0.000000000000e+00       2.387234696428e-11       2.442860294860e-12      -9.891611085407e-15 
   73       2.576421005975e-10       4.798002228689e-14      -9.031692105080e-13       0.000000000000e+00       2.309340884035e-11       2.375633933323e-12      -9.708435812270e-15 
   74       2.609524231815e-10       4.979549331802e-14      -9.665031842337e-13       0.000000000000e+00       2.234688297416e-11       2.311080836164e-12      -9.510766654472e-15 
   75       2.642942267211e-10       5.163710589406e-14      -1.031410989289e-12       0.000000000000e+00       2.163230492712e-11       2.249171431103e-12      -9.304192030538e-15 
   76       2.676679997318e-10       5.350364994634e-14      -1.097841956565e-12       0.000000000000e+00       2.094866770632e-11       2.189829672950e-12      -9.094906376961e-15 
   77       2.710738326603e-10       5.539384913267e-14      -1.165741038108e-12       0.000000000000e+00       2.029439663811e-11       2.132930864425e-12      -8.889729596879e-15 
   78       2.745113954788e-10       5.730635996383e-14      -1.235048722813e-12       0.000000000000e+00       1.966732424175e-11       2.078299476981e-12      -8.696126508748e-15 
   79       2.779799152802e-10       5.923977093006e-14      -1.305700952112e-12       0.000000000000e+00       1.906466510307e-11       2.025706971620e-12      -8.522226295025e-15 
   80       2.814786038227e-10       6.119263084860e-14      -1.377635190729e-12       0.000000000000e+00       1.848370759968e-11       1.974929633371e-12      -8.374945606765e-15 
   81       2.850080749673e-10       6.316354149739e-14      -1.450810038589e-12       0.000000000000e+00       1.792408269990e-11       1.925938435821e-12      -8.253939711263e-15 
   82       2.885691336522e-10       6.515107954946e-14      -1.525188886869e-12       0.000000000000e+00       1.738584515325e-11       1.878738325847e-12      -8.156631449660e-15 
   83       2.921623339503e-10       6.715376845345e-14      -1.600734094654e-12       0.000000000000e+00       1.686877996640e-11       1.833310087262e-12      -8.079998850883e-15 
   84       2.957879649963e-10       6.917007810133e-14      -1.677407018609e-12       0.000000000000e+00       1.637239055174e-11       1.789609272997e-12      -8.020559462838e-15 
   85       2.994460369140e-10       7.119842449597e-14      -1.755168042648e-12       0.000000000000e+00       1.589588687611e-11       1.747565137284e-12      -7.974354683604e-15 
   86       3.031362667428e-10       7.323716941880e-14      -1.833976607610e-12       0.000000000000e+00       1.543817360943e-11       1.707079567839e-12      -7.936934092631e-15 
   87       3.068580643654e-10       7.528462009744e-14      -1.913791240928e-12       0.000000000000e+00       1.499783827337e-11       1.668026018050e-12      -7.903339781928e-15 
   88       3.106105184342e-10       7.733902887331e-14      -1.994569586301e-12       0.000000000000e+00       1.457313939003e-11       1.630248439156e-12      -7.868090687262e-15 
   89       3.143927371233e-10       7.939862460885e-14      -2.076266817229e-12       0.000000000000e+00       1.416242115612e-11       1.593599117186e-12      -7.826349807573e-15 
   90       3.182049623165e-10       8.146171327988e-14      -2.158830527740e-12       0.000000000000e+00       1.376545784713e-11       1.558061313510e-12      -7.777669854901e-15 
   91       3.220476050839e-10       8.352659262396e-14      -2.242205091121e-12       0.000000000000e+00       1.338229945251e-11       1.523643984746e-12      -7.722809040047e-15 
   92       3.259208977817e-10       8.559152194666e-14      -2.326333210094e-12       0.000000000000e+00       1.301285853892e-11       1.490344112416e-12      -7.662602514171e-15 
   93       3.298248852954e-10       8.765472226465e-14      -2.411155922271e-12       0.000000000000e+00       1.265690478875e-11       1.458146217977e-12      -7.597964421164e-15 
   94       3.337594162819e-10       8.971437644892e-14      -2.496612605616e-12       0.000000000000e+00       1.231405953866e-11       1.427021877842e-12      -7.529889950010e-15 
   95       3.377241344129e-10       9.176862936780e-14      -2.582640983904e-12       0.000000000000e+00       1.198379031820e-11       1.396929238414e-12      -7.459457387150e-15 
   96       3.417184696174e-10       9.381558803020e-14      -2.669177132182e-12       0.000000000000e+00       1.166540538833e-11       1.367812531105e-12      -7.387830168854e-15 
   97       3.457416293245e-10       9.585332172863e-14      -2.756155482228e-12       0.000000000000e+00       1.135804827997e-11       1.339601587368e-12      -7.316258933584e-15 
   98       3.497925897062e-10       9.787986218242e-14      -2.843508828009e-12       0.000000000000e+00       1.106069233259e-11       1.312211353720e-12      -7.246083574357e-15 
   99       3.538703634950e-10       9.989324566670e-14      -2.931169559692e-12       0.000000000000e+00       1.077237602669e-11       1.285562245814e-12      -7.178458082627e-15 
  100       3.579748656498e-10       1.018916458989e-13      -3.019073553290e-12       0.000000000000e+00       1.049295882039e-11       1.259645548520e-12      -7.113476173814e-15 
  101       3.621061546063e-10       1.038732603277e-13      -3.107156844655e-12       0.000000000000e+00       1.022246272291e-11       1.234466421361e-12      -7.050925050682e-15 
  102       3.662641613045e-10       1.058362704708e-13      -3.195354470177e-12       0.000000000000e+00       9.960838541013e-12       1.210023656443e-12      -6.990550271761e-15 
  103       3.704486837837e-10       1.077788425662e-13      -3.283600487133e-12       0.000000000000e+00       9.707963336295e-12       1.186309446074e-12      -6.932054443606e-15 
  104       3.746593817781e-10       1.096991282247e-13      -3.371827994039e-12       0.000000000000e+00       9.463637882444e-12       1.163309150387e-12      -6.875095913059e-15 
  105       3.788957713117e-10       1.115952650817e-13      -3.459969151003e-12       0.000000000000e+00       9.227584122517e-12       1.141001064959e-12      -6.819287459518e-15 
  106       3.831572192938e-10       1.134653774497e-13      -3.547955200074e-12       0.000000000000e+00       8.999442626215e-12       1.119356188436e-12      -6.764194987191e-15 
  107       3.874429381137e-10       1.153075769697e-13      -3.635716485592e-12       0.000000000000e+00       8.778770047153e-12       1.098337990148e-12      -6.709336217370e-15 
