# dimensionless total lensed [l(l+1)/2pi] C_l's
# for l=2 to 2500, i.e. number of multipoles equal to 2499
#
# -> if you prefer output in CAMB/HealPix/LensPix units/order, set 'format' to 'camb' in input file
# -> if you don't want to see such a header, set 'headers' to 'no' in input file
# -> for CMB lensing (phi), these are C_l^phi-phi for the lensing potential.
#    Remember the conversion factors:
#    C_l^dd (deflection) = l(l+1) C_l^phi-phi
#    C_l^gg (shear/convergence) = 1/4 (l(l+1))^2 C_l^phi-phi
#
# 1:l     2:TT                     3:EE                     4:TE                     5:BB                     6:phiphi                 7:TPhi                   8:Ephi               
    2       1.286912734569e-10       4.085496842970e-15       3.625563633849e-13       2.334049171276e-19       8.645367582524e-09       3.919782895974e-10      -1.838403833630e-12 
    3       1.233642366115e-10       5.334663028450e-15       4.020899317752e-13       4.668926022753e-19       5.282098224035e-09       2.803831323869e-10      -1.407200789869e-12 
    4       1.178681694840e-10       4.729524745812e-15       3.750141688192e-13       7.783371862247e-19       3.653984137266e-09       2.133744329390e-10      -9.391198320170e-13 
    5       1.136854217229e-10       3.240380678478e-15       3.197203561789e-13       1.167846034785e-18       2.716578831762e-09       1.690451580812e-10      -5.399555371698e-13 
    6       1.108370509345e-10       1.851365890027e-15       2.581183953471e-13       1.635550809062e-18       2.115392462505e-09       1.377699878619e-10      -2.399280414697e-13 
    7       1.090443683954e-10       1.000150426710e-15       2.030670698600e-13       2.181605824253e-18       1.701948114428e-09       1.147555870862e-10      -4.248776570823e-14 
    8       1.081075671728e-10       6.286278484107e-16       1.602707445169e-13       2.806186135909e-18       1.403038405085e-09       9.730441150702e-11       6.452464341788e-14 
    9       1.077875657223e-10       4.981957221296e-16       1.311237735470e-13       3.509485383364e-18       1.178909299541e-09       8.370953210735e-11       1.016000068670e-13 
   10       1.078985173022e-10       4.294807248284e-16       1.144822949561e-13       4.291713424284e-18       1.005979215572e-09       7.287377959018e-11       9.231531103759e-14 
   11       1.083904550024e-10       3.646342160284e-16       1.078247358139e-13       5.153093798239e-18       8.604536838005e-10       6.492886103854e-11       5.947933464161e-14 
   12       1.091691728221e-10       3.150705765173e-16       1.082350787249e-13       6.093861060606e-18       7.517309353754e-10       5.744570184877e-11       2.047103680572e-14 
   13       1.101593872632e-10       2.966006576550e-16       1.130182862978e-13       7.114258031003e-18       6.624972616911e-10       5.141486401532e-11      -1.185708650189e-14 
   14       1.113058155984e-10       3.055370577446e-16       1.201076271830e-13       8.214533002632e-18       5.882770586545e-10       4.615521169554e-11      -3.186784046287e-14 
   15       1.125920404108e-10       3.292576887075e-16       1.281837492599e-13       9.394936960323e-18       5.258152321922e-10       4.162929401095e-11      -3.858757467070e-14 
   16       1.140305124335e-10       3.617794148561e-16       1.364519767635e-13       1.065572085560e-17       4.727176794140e-10       3.778117867423e-11      -3.475886119510e-14 
   17       1.155270304500e-10       4.068022640621e-16       1.446408023008e-13       1.199713298659e-17       4.271765459394e-10       3.448518118974e-11      -2.497605058715e-14 
   18       1.171200991547e-10       4.710477204877e-16       1.529240133986e-13       1.341941651011e-17       3.876594528697e-10       3.159684452583e-11      -1.408079865312e-14 
   19       1.188187348881e-10       5.562273803991e-16       1.615146071562e-13       1.492280726365e-17       3.535252110883e-10       2.905214261412e-11      -5.106620780239e-15 
   20       1.205550093872e-10       6.614693580000e-16       1.705922363367e-13       1.650753148154e-17       3.234678986454e-10       2.675698368971e-11      -4.923350603039e-16 
   21       1.223489568122e-10       7.856307183098e-16       1.801890600733e-13       1.817380448644e-17       2.970125949484e-10       2.471457615407e-11      -2.770389643793e-16 
   22       1.242153361217e-10       9.272118752803e-16       1.902177023827e-13       1.992182842562e-17       2.735207387720e-10       2.292203904834e-11      -3.291694637430e-15 
   23       1.261369014141e-10       1.086613419723e-15       2.004039359483e-13       2.175179249795e-17       2.526766243680e-10       2.133116857151e-11      -7.966048540830e-15 
   24       1.280702906964e-10       1.264578279119e-15       2.103561600133e-13       2.366387028436e-17       2.340030437061e-10       1.986433895165e-11      -1.240362567775e-14 
   25       1.300354949395e-10       1.460916486065e-15       2.197320231309e-13       2.565822076516e-17       2.172460089168e-10       1.852420235310e-11      -1.545748763983e-14 
   26       1.320572205011e-10       1.675289444450e-15       2.282084216890e-13       2.773498647076e-17       2.020769165190e-10       1.732488434492e-11      -1.632865576599e-14 
   27       1.341409683453e-10       1.909083150108e-15       2.356744908079e-13       2.989429882043e-17       1.884165011769e-10       1.625743977940e-11      -1.525249457936e-14 
   28       1.362666412873e-10       2.164450928929e-15       2.421006651738e-13       3.213627183041e-17       1.760984009875e-10       1.528892325695e-11      -1.297576744608e-14 
   29       1.384002066202e-10       2.443617341447e-15       2.474899274855e-13       3.446100233625e-17       1.648225522706e-10       1.437705132001e-11      -1.039977672811e-14 
   30       1.405488611609e-10       2.747812034156e-15       2.518988329806e-13       3.686858199082e-17       1.545266046859e-10       1.352672836491e-11      -8.069469398340e-15 
   31       1.427242715769e-10       3.077913014576e-15       2.554301169038e-13       3.935908801761e-17       1.451341616110e-10       1.275412228926e-11      -6.502388395160e-15 
   32       1.449297310239e-10       3.434749418005e-15       2.581854944354e-13       4.193258296262e-17       1.364965840301e-10       1.206793568806e-11      -6.148903328688e-15 
   33       1.471699235261e-10       3.819244455775e-15       2.601074472347e-13       4.458912834952e-17       1.285666325169e-10       1.145627030916e-11      -6.770352449586e-15 
   34       1.494425227448e-10       4.232315165525e-15       2.610784856629e-13       4.732877478774e-17       1.212737723857e-10       1.089344477874e-11      -7.820431405163e-15 
   35       1.517393457742e-10       4.674828509557e-15       2.609698142341e-13       5.015156289086e-17       1.145091140942e-10       1.035118327605e-11      -8.723206429400e-15 
   36       1.540633902102e-10       5.147594250687e-15       2.596733206732e-13       5.305754091253e-17       1.082550125200e-10       9.828886447653e-12      -9.316562937780e-15 
   37       1.564161378707e-10       5.651361594228e-15       2.570787156781e-13       5.604675268548e-17       1.024918419866e-10       9.333098167774e-12      -9.555465029538e-15 
   38       1.587920711865e-10       6.186814916395e-15       2.530639779383e-13       5.911923276448e-17       9.715882365255e-11       8.869296291895e-12      -9.394768917384e-15 
   39       1.611826675328e-10       6.754589849929e-15       2.475242024626e-13       6.227501107964e-17       9.217593635929e-11       8.441120761200e-12      -8.823751917877e-15 
   40       1.635918711193e-10       7.355339875617e-15       2.404720424788e-13       6.551412915969e-17       8.752787116724e-11       8.048105794117e-12      -7.983349187572e-15 
   41       1.660246231443e-10       7.989684359300e-15       2.319700968459e-13       6.883662919671e-17       8.320234823541e-11       7.686923494682e-12      -7.089247224036e-15 
   42       1.684821685930e-10       8.658186408838e-15       2.221055681406e-13       7.224254994206e-17       7.916506587849e-11       7.351744235720e-12      -6.403810131665e-15 
   43       1.709634784882e-10       9.361383584527e-15       2.109588591579e-13       7.573192810590e-17       7.537237637879e-11       7.035984036284e-12      -6.165156976524e-15 
   44       1.734709978414e-10       1.009989918350e-14       1.984942864557e-13       7.930480254906e-17       7.181841971353e-11       6.738668910203e-12      -6.341234826731e-15 
   45       1.760060130807e-10       1.087436016812e-14       1.846376921709e-13       8.296121177401e-17       6.849956749881e-11       6.459719718430e-12      -6.803855354969e-15 
   46       1.785667066555e-10       1.168536514785e-14       1.693056739985e-13       8.670119315036e-17       6.540027260812e-11       6.198105139805e-12      -7.394016639581e-15 
   47       1.811478713685e-10       1.253348327663e-14       1.524049322718e-13       9.052478321187e-17       6.249213994301e-11       5.951766126739e-12      -7.920077588332e-15 
   48       1.837435932520e-10       1.341921292788e-14       1.338488799061e-13       9.443201452432e-17       5.974266536407e-11       5.718260713276e-12      -8.208045726430e-15 
   49       1.863568610462e-10       1.434284651748e-14       1.136145323563e-13       9.842290455202e-17       5.714653366314e-11       5.497089645412e-12      -8.273462834538e-15 
   50       1.889921747056e-10       1.530456568153e-14       9.170053245252e-14       1.024974641631e-16       5.470154658577e-11       5.287896523863e-12      -8.194835222494e-15 
   51       1.916526824491e-10       1.630447509461e-14       6.811150990856e-14       1.066557009039e-16       5.239929973119e-11       5.089766851755e-12      -8.066563472010e-15 
   52       1.943400465484e-10       1.734259931491e-14       4.285830916094e-14       1.108976191205e-16       5.022474659635e-11       4.901189242976e-12      -7.999775705541e-15 
   53       1.970549254798e-10       1.841892449818e-14       1.594930149232e-14       1.152232141403e-16       4.816092128210e-11       4.720561856802e-12      -8.094207572670e-15 
   54       1.997988748738e-10       1.953354339432e-14      -1.263882581128e-14       1.196324527763e-16       4.620553585537e-11       4.547953881689e-12      -8.343435057918e-15 
   55       2.025727014691e-10       2.068654213720e-14      -4.293897288725e-14       1.241252880224e-16       4.435789107121e-11       4.383729396150e-12      -8.706725234976e-15 
   56       2.053757836074e-10       2.187795739466e-14      -7.498551176049e-14       1.287016644313e-16       4.261387656906e-11       4.228026217596e-12      -9.135484389262e-15 
   57       2.082059628650e-10       2.310777509496e-14      -1.088144323294e-13       1.333615179872e-16       4.096575121289e-11       4.080739971323e-12      -9.572877312685e-15 
   58       2.110594356841e-10       2.437592915328e-14      -1.444634883519e-13       1.381047759792e-16       3.940192343141e-11       3.941508159507e-12      -9.953446598408e-15 
   59       2.139323728264e-10       2.568227589741e-14      -1.819617071981e-13       1.429313567864e-16       3.791014156159e-11       3.809817135418e-12      -1.021880139355e-14 
   60       2.168264630295e-10       2.702651330217e-14      -2.212947427340e-13       1.478411694664e-16       3.648842894575e-11       3.685388218331e-12      -1.036980288688e-14 
   61       2.197444675151e-10       2.840824071470e-14      -2.624317200560e-13       1.528341138465e-16       3.513630458519e-11       3.567853249560e-12      -1.042584654050e-14 
   62       2.226885565810e-10       2.982697945160e-14      -3.053349540868e-13       1.579100804754e-16       3.385149447732e-11       3.456628046745e-12      -1.041001887247e-14 
   63       2.256602598036e-10       3.128217070158e-14      -3.499597350115e-13       1.630689504928e-16       3.262982754918e-11       3.350900639123e-12      -1.034926147895e-14 
   64       2.286604162394e-10       3.277317342821e-14      -3.962541137127e-13       1.683105954998e-16       3.146513159094e-11       3.249619502799e-12      -1.027453505637e-14 
   65       2.316894825657e-10       3.429929133344e-14      -4.441704527622e-13       1.736348917152e-16       3.035093634159e-11       3.151766765870e-12      -1.021366598246e-14 
   66       2.347486452048e-10       3.585986509624e-14      -4.937034046580e-13       1.790417662210e-16       2.928623571654e-11       3.057271499696e-12      -1.016775679899e-14 
   67       2.378388554058e-10       3.745419597713e-14      -5.448596169323e-13       1.845311603076e-16       2.827076349743e-11       2.966269387878e-12      -1.013005832100e-14 
   68       2.409604530468e-10       3.908151722067e-14      -5.976467887170e-13       1.901030163160e-16       2.730324134506e-11       2.878831100901e-12      -1.009280634643e-14 
   69       2.441131268486e-10       4.074099277107e-14      -6.520737852860e-13       1.957572779071e-16       2.638132528255e-11       2.794958502589e-12      -1.004718099465e-14 
   70       2.472958745893e-10       4.243171598775e-14      -7.081507525972e-13       2.014938903317e-16       2.550155217862e-11       2.714580856561e-12      -9.983266044945e-15 
   71       2.505069633185e-10       4.415270836102e-14      -7.658892318350e-13       2.073128006997e-16       2.465928623075e-11       2.637551032685e-12      -9.890008274955e-15 
   72       2.537447020603e-10       4.590294404662e-14      -8.252941423003e-13       2.132139797503e-16       2.384991157038e-11       2.563694375102e-12      -9.758395023212e-15 
   73       2.570100200476e-10       4.768143177595e-14      -8.863376939635e-13       2.191974913985e-16       2.307279402804e-11       2.492974595963e-12      -9.591783360547e-15 
   74       2.603043137848e-10       4.948714642065e-14      -9.489806511089e-13       2.252634370876e-16       2.232798665625e-11       2.425353017713e-12      -9.397489352034e-15 
   75       2.636286575338e-10       5.131900388350e-14      -1.013179950399e-12       2.314119362190e-16       2.161502634751e-11       2.360736185827e-12      -9.183777763351e-15 
   76       2.669837820781e-10       5.317586040360e-14      -1.078888629761e-12       2.376431269126e-16       2.093290876786e-11       2.298973277581e-12      -8.959894874690e-15 
   77       2.703700534868e-10       5.505651186134e-14      -1.146055757277e-12       2.439571667677e-16       2.028006329029e-11       2.239853510828e-12      -8.736101294682e-15 
   78       2.737874518790e-10       5.695969308355e-14      -1.214626360073e-12       2.503542336230e-16       1.965432792829e-11       2.183103552769e-12      -8.523704774311e-15 
   79       2.772355501879e-10       5.888407714857e-14      -1.284541353201e-12       2.568345263175e-16       1.905292426931e-11       2.128384928729e-12      -8.335093020832e-15 
   80       2.807138710406e-10       6.082829110902e-14      -1.355742712442e-12       2.633982637306e-16       1.847314773832e-11       2.075376991358e-12      -8.180908617550e-15 
   81       2.842230754918e-10       6.279096783376e-14      -1.428190183695e-12       2.700456800395e-16       1.791463158754e-11       2.024048122778e-12      -8.060936576485e-15 
   82       2.877639429336e-10       6.477070194269e-14      -1.501847359210e-12       2.767770300225e-16       1.737743216630e-11       1.974427121223e-12      -7.971686755985e-15 
   83       2.913369973005e-10       6.676603380380e-14      -1.576676717016e-12       2.835925914236e-16       1.686133687551e-11       1.926520832634e-12      -7.909091396300e-15 
   84       2.949424928368e-10       6.877544914229e-14      -1.652639646920e-12       2.904926656803e-16       1.636585234797e-11       1.880313143890e-12      -7.868485009542e-15 
   85       2.985803998624e-10       7.079737864967e-14      -1.729696476505e-12       2.974775786533e-16       1.589019262874e-11       1.835763976030e-12      -7.844584269631e-15 
   86       3.022503905392e-10       7.283019759286e-14      -1.807806497123e-12       3.045476813542e-16       1.543326735545e-11       1.792808277479e-12      -7.831467902254e-15 
   87       3.059518246374e-10       7.487222542331e-14      -1.886927989900e-12       3.117033506744e-16       1.499366993868e-11       1.751355017278e-12      -7.822556574812e-15 
   88       3.096837353016e-10       7.692172538611e-14      -1.967018251725e-12       3.189449901138e-16       1.456966574227e-11       1.711286178306e-12      -7.810592786371e-15 
   89       3.134451803036e-10       7.897693923605e-14      -2.048032238975e-12       3.262730043555e-16       1.415960534647e-11       1.672486164281e-12      -7.789134936891e-15 
   90       3.172363899718e-10       8.103619847893e-14      -2.129918198172e-12       3.336877168309e-16       1.376326439598e-11       1.634937501946e-12      -7.757351966980e-15 
   91       3.210577739474e-10       8.309782994140e-14      -2.212621394623e-12       3.411894405053e-16       1.338069313162e-11       1.598638366397e-12      -7.715947289000e-15 
   92       3.249095630936e-10       8.516012235059e-14      -2.296085438903e-12       3.487785032129e-16       1.301180464255e-11       1.563572960298e-12      -7.665714100867e-15 
   93       3.287918007365e-10       8.722132646916e-14      -2.380252292142e-12       3.564552479935e-16       1.265636941496e-11       1.529710962745e-12      -7.607537960338e-15 
   94       3.327043339074e-10       8.927965523037e-14      -2.465062271314e-12       3.642200334296e-16       1.231400988063e-11       1.497006978132e-12      -7.542399359292e-15 
   95       3.366468045840e-10       9.133328387311e-14      -2.550454054527e-12       3.720732339827e-16       1.198419496559e-11       1.465399985011e-12      -7.471376298023e-15 
   96       3.406186409329e-10       9.338035007700e-14      -2.636364686313e-12       3.800152403302e-16       1.166623463872e-11       1.434812784956e-12      -7.395646859522e-15 
   97       3.446190485507e-10       9.541895409741e-14      -2.722729582913e-12       3.880464597027e-16       1.135927446041e-11       1.405151451430e-12      -7.316491783762e-15 
   98       3.486470017059e-10       9.744715890050e-14      -2.809482537571e-12       3.961673162200e-16       1.106229013115e-11       1.376304778640e-12      -7.235297041984e-15 
   99       3.527015137487e-10       9.946303124085e-14      -2.896556956854e-12       4.043782596376e-16       1.077432238125e-11       1.348170667382e-12      -7.153328647738e-15 
  100       3.567825109735e-10       1.014647712410e-13      -2.983889758000e-12       4.126797922689e-16       1.049523138569e-11       1.320740738269e-12      -7.071015131202e-15 
  101       3.608900668372e-10       1.034506015022e-13      -3.071418035987e-12       4.210724465193e-16       1.022503957573e-11       1.294026735141e-12      -6.988567742978e-15 
  102       3.650241285270e-10       1.054187284220e-13      -3.159077901709e-12       4.295567772510e-16       9.963698324754e-12       1.268034435506e-12      -6.906198966338e-15 
  103       3.691845115861e-10       1.073673428265e-13      -3.246804502182e-12       4.381333622212e-16       9.711085410136e-12       1.242763425906e-12      -6.824122330753e-15 
  104       3.733708945394e-10       1.092946206010e-13      -3.334532040754e-12       4.468028025213e-16       9.467002475073e-12       1.218206877291e-12      -6.742552225400e-15 
  105       3.775828135190e-10       1.111987233213e-13      -3.422193797321e-12       4.555657230154e-16       9.231172490443e-12       1.194351320394e-12      -6.661703712690e-15 
  106       3.818196568897e-10       1.130777988857e-13      -3.509722148534e-12       4.644227727786e-16       9.003237216654e-12       1.171176421099e-12      -6.581792341784e-15 
  107       3.860806598750e-10       1.149299821455e-13      -3.597048588008e-12       4.733746255367e-16       8.782754665491e-12       1.148654755815e-12      -6.503033962112e-15 
