# dimensionless total lensed [l(l+1)/2pi] C_l's
# for l=2 to 2500, i.e. number of multipoles equal to 2499
#
# -> if you prefer output in CAMB/HealPix/LensPix units/order, set 'format' to 'camb' in input file
# -> if you don't want to see such a header, set 'headers' to 'no' in input file
# -> for CMB lensing (phi), these are C_l^phi-phi for the lensing potential.
#    Remember the conversion factors:
#    C_l^dd (deflection) = l(l+1) C_l^phi-phi
#    C_l^gg (shear/convergence) = 1/4 (l(l+1))^2 C_l^phi-phi
#
# 1:l     2:TT                     3:EE                     4:TE                     5:BB                     6:phiphi                 7:TPhi                   8:Ephi               
    2       1.568020747301e-10       4.342558095894e-15       3.356369875075e-13       2.221892749602e-19       7.764999420565e-09       5.540870863668e-10      -1.845193958676e-12 
    3       1.447464650585e-10       5.369569661524e-15       3.852307414393e-13       4.444675599200e-19       4.764469183972e-09       3.871386493173e-10      -1.369469217462e-12 
    4       1.345346955067e-10       4.440873078798e-15       3.618219980585e-13       7.409754514442e-19       3.306970623011e-09       2.906159546568e-10      -8.631355785098e-13 
    5       1.270786749213e-10       2.827021341220e-15       3.075091892317e-13       1.111827176219e-18       2.466095080844e-09       2.281834688755e-10      -4.476051693659e-13 
    6       1.219175950662e-10       1.529405902577e-15       2.465679286336e-13       1.557161780762e-18       1.924962291370e-09       1.848671096272e-10      -1.532816065062e-13 
    7       1.184902528585e-10       8.373023672958e-16       1.929018645041e-13       2.077140791086e-18       1.551854209341e-09       1.533589509907e-10       2.275936725731e-14 
    8       1.162746095124e-10       5.683559958487e-16       1.524427164989e-13       2.671945548723e-18       1.281628591853e-09       1.295760797655e-10       1.011691830623e-13 
    9       1.149755915092e-10       4.635624788299e-16       1.262470219134e-13       3.341774293989e-18       1.078473791407e-09       1.111098619371e-10       1.106990013452e-13 
   10       1.143974156235e-10       3.886955486185e-16       1.125583519969e-13       4.086839072915e-18       9.212696999464e-10       9.648148199042e-11       8.109843702049e-14 
   11       1.142749409562e-10       3.263974328786e-16       1.084369413781e-13       4.907362547462e-18       7.905153786917e-10       8.538700272266e-11       3.825327040228e-14 
   12       1.145672751962e-10       2.934897155993e-16       1.108032088367e-13       5.803574789234e-18       6.913071808951e-10       7.561156417132e-11      -6.577874054565e-16 
   13       1.151834376682e-10       2.915973921455e-16       1.168964615211e-13       6.775710134971e-18       6.097737566775e-10       6.727330031421e-11      -2.612156132129e-14 
   14       1.160085678269e-10       3.087932406212e-16       1.247574199727e-13       7.824004177803e-18       5.418715117091e-10       6.032618570380e-11      -3.571356792587e-14 
   15       1.170592056167e-10       3.374729287233e-16       1.332235428523e-13       8.948690961595e-18       4.846721584782e-10       5.445027937120e-11      -3.260051281347e-14 
   16       1.182788861753e-10       3.803132933031e-16       1.417289188634e-13       1.015000043716e-17       4.360002338291e-10       4.928454220566e-11      -2.263565150176e-14 
   17       1.196272666055e-10       4.432945240415e-16       1.503401489144e-13       1.142815622882e-17       3.942133865338e-10       4.479531913381e-11      -1.135455227392e-14 
   18       1.211021730542e-10       5.284928445554e-16       1.593288753361e-13       1.278337361880e-17       3.579228656223e-10       4.088134656428e-11      -3.103918602963e-15 
   19       1.227056740552e-10       6.348365067556e-16       1.688423702957e-13       1.421585867944e-17       3.265483873661e-10       3.749043790874e-11       5.876390202026e-16 
   20       1.243803321728e-10       7.599320383252e-16       1.789240961564e-13       1.572580571111e-17       2.989019230358e-10       3.450912426812e-11      -5.206918335389e-16 
   21       1.261312214552e-10       9.038978793210e-16       1.894211928674e-13       1.731339847199e-17       2.745525613372e-10       3.187147934578e-11      -4.884924678628e-15 
   22       1.279511696863e-10       1.067334670069e-15       2.000367393580e-13       1.897880750688e-17       2.529172201703e-10       2.948982397922e-11      -9.998406579532e-15 
   23       1.298405576605e-10       1.250065362860e-15       2.104035408599e-13       2.072219296309e-17       2.337084153935e-10       2.736501433495e-11      -1.414663957000e-14 
   24       1.317809209573e-10       1.451717372666e-15       2.200977708035e-13       2.254370147137e-17       2.164899034295e-10       2.549157467683e-11      -1.595629300719e-14 
   25       1.337757592235e-10       1.673508935996e-15       2.288416863473e-13       2.444346948468e-17       2.010302527040e-10       2.380954163399e-11      -1.553046479767e-14 
   26       1.358211848588e-10       1.917249712818e-15       2.364322126614e-13       2.642162114596e-17       1.870291700209e-10       2.223240817579e-11      -1.358900066675e-14 
   27       1.379251113603e-10       2.184663713779e-15       2.428848991441e-13       2.847827574668e-17       1.744148976383e-10       2.076536412129e-11      -1.087430814929e-14 
   28       1.400813245076e-10       2.477565836365e-15       2.483284011169e-13       3.061354080320e-17       1.630351487768e-10       1.943346353487e-11      -8.331235374888e-15 
   29       1.422685457586e-10       2.797763089283e-15       2.529104142430e-13       3.282751222298e-17       1.526144475965e-10       1.824770847290e-11      -6.923707365155e-15 
   30       1.444899875430e-10       3.146424799727e-15       2.566155955407e-13       3.512028641591e-17       1.430959602397e-10       1.719456044619e-11      -6.685797636476e-15 
   31       1.467456514584e-10       3.524452106185e-15       2.593767616632e-13       3.749195193221e-17       1.344097379116e-10       1.623899119212e-11      -7.288763852756e-15 
   32       1.490266170902e-10       3.932659561829e-15       2.611157236871e-13       3.994258865461e-17       1.264191804695e-10       1.533858640981e-11      -8.312440441570e-15 
   33       1.513371022669e-10       4.371891219825e-15       2.617268421773e-13       4.247227759486e-17       1.190810381738e-10       1.449075847778e-11      -9.390722560395e-15 
   34       1.536781937081e-10       4.842932329776e-15       2.610854332570e-13       4.508109422777e-17       1.123304863112e-10       1.370139275108e-11      -1.010609776595e-14 
   35       1.560455921406e-10       5.346532826431e-15       2.590676463431e-13       4.776910781644e-17       1.060672826837e-10       1.297243920432e-11      -1.007652352855e-14 
   36       1.584457678696e-10       5.883620055716e-15       2.556089192709e-13       5.053638857601e-17       1.002753568189e-10       1.230320793613e-11      -9.410006197995e-15 
   37       1.608838882116e-10       6.455152903185e-15       2.506653169517e-13       5.338300287055e-17       9.493677638297e-11       1.168871670097e-11      -8.409622774936e-15 
   38       1.633585924644e-10       7.062062910519e-15       2.441984283931e-13       5.630901131284e-17       8.999559325540e-11       1.111875355574e-11      -7.460369109361e-15 
   39       1.658643320319e-10       7.705224724942e-15       2.361817792716e-13       5.931446908523e-17       8.537806438981e-11       1.058130800855e-11      -6.931476867712e-15 
   40       1.684011532207e-10       8.385360160827e-15       2.266219760112e-13       6.239942703900e-17       8.107014317117e-11       1.007540440289e-11      -6.829467225613e-15 
   41       1.709670095517e-10       9.103098096100e-15       2.155452700030e-13       6.556393096630e-17       7.706053742319e-11       9.601865054840e-12      -7.036310321132e-15 
   42       1.735544684155e-10       9.858995171580e-15       2.029928196822e-13       6.880802133168e-17       7.331758137862e-11       9.159624710008e-12      -7.400413306686e-15 
   43       1.761546704620e-10       1.065356638971e-14       1.889975077582e-13       7.213173133507e-17       6.980095931244e-11       8.746421592665e-12      -7.769298377675e-15 
   44       1.787718914166e-10       1.148739808231e-14       1.735039385407e-13       7.553508032620e-17       6.650530097998e-11       8.361530248981e-12      -8.105063362830e-15 
   45       1.814126609082e-10       1.236106321466e-14       1.564247878442e-13       7.901807837438e-17       6.342729324500e-11       8.003594630367e-12      -8.401186300816e-15 
   46       1.840814676529e-10       1.327508785834e-14       1.376618556782e-13       8.258072795048e-17       6.055259085931e-11       7.669729564052e-12      -8.650755547600e-15 
   47       1.867805326805e-10       1.422994926812e-14       1.171053177186e-13       8.622302382531e-17       5.785495613012e-11       7.355405639313e-12      -8.846462711638e-15 
   48       1.895103900081e-10       1.522602904749e-14       9.465545175707e-14       8.994495106022e-17       5.530434367156e-11       7.055774977879e-12      -8.985413159455e-15 
   49       1.922723513529e-10       1.626346152109e-14       7.029680577016e-14       9.374647854586e-17       5.289585701913e-11       6.770359067385e-12      -9.085177518784e-15 
   50       1.950663465699e-10       1.734223931629e-14       4.404365086346e-14       9.762756346751e-17       5.062747638226e-11       6.499484592384e-12      -9.172252759482e-15 
   51       1.978899958565e-10       1.846225043196e-14       1.591972002676e-14       1.015881528599e-16       4.849143221403e-11       6.242917348864e-12      -9.277872527213e-15 
   52       2.007384241752e-10       1.962327402408e-14      -1.404139371264e-14       1.056281834080e-16       4.647380126032e-11       5.999820644971e-12      -9.438245873052e-15 
   53       2.036065032245e-10       2.082508900916e-14      -4.580952149119e-14       1.097475842336e-16       4.455887996344e-11       5.769106504110e-12      -9.683566924164e-15 
   54       2.064966813491e-10       2.206784236185e-14      -7.940269804198e-14       1.139462865517e-16       4.274455479447e-11       5.550691054655e-12      -1.000117653206e-14 
   55       2.094128436009e-10       2.335176817721e-14      -1.148532030487e-13       1.182242161504e-16       4.103018026355e-11       5.344489453146e-12      -1.036334397691e-14 
   56       2.123579785206e-10       2.467708364664e-14      -1.521950582675e-13       1.225812905512e-16       3.941194846278e-11       5.150026774320e-12      -1.073744000084e-14 
   57       2.153340943451e-10       2.604398957373e-14      -1.914642030574e-13       1.270174189349e-16       3.788268542378e-11       4.966412881541e-12      -1.108570471742e-14 
   58       2.183421352140e-10       2.745267089005e-14      -2.326986699101e-13       1.315325020678e-16       3.643164747527e-11       4.792317297227e-12      -1.136501552126e-14 
   59       2.213823606847e-10       2.890312970241e-14      -2.759271146975e-13       1.361264418692e-16       3.504747905854e-11       4.626328846838e-12      -1.153737464636e-14 
   60       2.244557775038e-10       3.039463798748e-14      -3.211308983090e-13       1.407991728735e-16       3.372835080322e-11       4.468189195359e-12      -1.160474304597e-14 
   61       2.275628928346e-10       3.192615848232e-14      -3.682734938162e-13       1.455506379571e-16       3.247382008970e-11       4.317801870872e-12      -1.158190016637e-14 
   62       2.307032134868e-10       3.349649592202e-14      -4.173111427587e-13       1.503807795874e-16       3.128178209460e-11       4.174860838787e-12      -1.148656417231e-14 
   63       2.338751778297e-10       3.510429187859e-14      -4.681926359186e-13       1.552895400764e-16       3.014837331644e-11       4.038838415438e-12      -1.133952323446e-14 
   64       2.370760877040e-10       3.674801959993e-14      -5.208590940951e-13       1.602768618336e-16       2.906787510123e-11       3.908973181684e-12      -1.116476681691e-14 
   65       2.403032740535e-10       3.842618881886e-14      -5.752551419785e-13       1.653426994821e-16       2.803429146830e-11       3.784480320662e-12      -1.098473675812e-14 
   66       2.435580336789e-10       4.013802218735e-14      -6.313656726749e-13       1.704870586243e-16       2.704668767172e-11       3.665261554400e-12      -1.080461665767e-14 
   67       2.468424069708e-10       4.188291329677e-14      -6.891865003920e-13       1.757099657625e-16       2.610481313765e-11       3.551324398193e-12      -1.062494011091e-14 
   68       2.501579848088e-10       4.366023004754e-14      -7.487137519824e-13       1.810114577340e-16       2.520747821555e-11       3.442567248257e-12      -1.044617219866e-14 
   69       2.535058749827e-10       4.546931536137e-14      -8.099439664073e-13       1.863915822960e-16       2.435250453748e-11       3.338773516986e-12      -1.026870426539e-14 
   70       2.568866686157e-10       4.730948789349e-14      -8.728741941986e-13       1.918503987104e-16       2.353667537720e-11       3.239605768206e-12      -1.009284869738e-14 
   71       2.603004065851e-10       4.918004274484e-14      -9.375020969225e-13       1.973879783283e-16       2.275568600949e-11       3.144599852432e-12      -9.918833700924e-15 
   72       2.637469585865e-10       5.108014925663e-14      -1.003819472192e-12       2.030044093794e-16       2.200525058460e-11       3.053286862635e-12      -9.747025659844e-15 
   73       2.672273191753e-10       5.300852009897e-14      -1.071791168788e-12       2.086998111012e-16       2.128477903697e-11       2.965599135614e-12      -9.578657225001e-15 
   74       2.707425009779e-10       5.496367965517e-14      -1.141372285200e-12       2.144743233916e-16       2.059431953634e-11       2.881531946897e-12      -9.415230195579e-15 
   75       2.742931203465e-10       5.694405970177e-14      -1.212514335693e-12       2.203281035140e-16       1.993344166673e-11       2.801019698985e-12      -9.258300297283e-15 
   76       2.778793732030e-10       5.894799777103e-14      -1.285165199670e-12       2.262613267788e-16       1.930121319014e-11       2.723932974880e-12      -9.109477156385e-15 
   77       2.815010108813e-10       6.097373551346e-14      -1.359269071034e-12       2.322741872236e-16       1.869617681017e-11       2.650075591618e-12      -8.970424273781e-15 
   78       2.851573159708e-10       6.301941706028e-14      -1.434766407547e-12       2.383668982946e-16       1.811632693571e-11       2.579181653800e-12      -8.842858999048e-15 
   79       2.888470781594e-10       6.508308738598e-14      -1.511593880196e-12       2.445396935270e-16       1.755908644464e-11       2.510912607123e-12      -8.728552504492e-15 
   80       2.925690957173e-10       6.716278057944e-14      -1.589688257261e-12       2.507928198899e-16       1.702194643461e-11       2.444941592797e-12      -8.628808809257e-15 
   81       2.963238333918e-10       6.925680591426e-14      -1.668998944763e-12       2.571265149904e-16       1.650456454569e-11       2.381229863908e-12      -8.542797713533e-15 
   82       3.001120096817e-10       7.136350870251e-14      -1.749477541624e-12       2.635410271351e-16       1.600699033291e-11       2.319793219111e-12      -8.468930948734e-15 
   83       3.039340825687e-10       7.348118482563e-14      -1.831074120271e-12       2.700366228510e-16       1.552902385580e-11       2.260617656169e-12      -8.405347889141e-15 
   84       3.077902350947e-10       7.560808076202e-14      -1.913737248864e-12       2.766135874307e-16       1.507020471961e-11       2.203658042168e-12      -8.349905878734e-15 
   85       3.116803609389e-10       7.774239361442e-14      -1.997414013522e-12       2.832722254772e-16       1.462980111652e-11       2.148836783732e-12      -8.300170558030e-15 
   86       3.156040499947e-10       7.988227113746e-14      -2.082050040550e-12       2.900128614491e-16       1.420679886685e-11       2.096042497237e-12      -8.253406190908e-15 
   87       3.195605739473e-10       8.202581176510e-14      -2.167589518663e-12       2.968358402056e-16       1.379989046024e-11       2.045128679023e-12      -8.206565991449e-15 
   88       3.235488718503e-10       8.417106463811e-14      -2.253975221217e-12       3.037415275512e-16       1.340746409693e-11       1.995912375614e-12      -8.156282450764e-15 
   89       3.275679156135e-10       8.631604967206e-14      -2.341147968332e-12       3.107303069485e-16       1.302798723570e-11       1.948219466440e-12      -8.099642266485e-15 
   90       3.316179036089e-10       8.845882130892e-14      -2.429044868129e-12       3.178025678776e-16       1.266125007813e-11       1.902031551391e-12      -8.036671529740e-15 
   91       3.356992286006e-10       9.059741486316e-14      -2.517600839270e-12       3.249587166460e-16       1.230729786348e-11       1.857359762326e-12      -7.968224374749e-15 
   92       3.398121058935e-10       9.272982769468e-14      -2.606749160139e-12       3.321991805394e-16       1.196604874840e-11       1.814199579118e-12      -7.895235132668e-15 
   93       3.439565646021e-10       9.485401953644e-14      -2.696421482672e-12       3.395244083094e-16       1.163728875840e-11       1.772530198182e-12      -7.818720412773e-15 
   94       3.481324389189e-10       9.696791282227e-14      -2.786547846200e-12       3.469348706607e-16       1.132066673927e-11       1.732313901006e-12      -7.739781183636e-15 
   95       3.523393593833e-10       9.906939301450e-14      -2.877056691279e-12       3.544310607389e-16       1.101568930847e-11       1.693495422678e-12      -7.659604854303e-15 
   96       3.565767441501e-10       1.011563089317e-13      -2.967874873526e-12       3.620134946182e-16       1.072171580661e-11       1.656001320416e-12      -7.579467355481e-15 
   97       3.608437902585e-10       1.032264730765e-13      -3.058927677457e-12       3.696827117887e-16       1.043795324883e-11       1.619739342099e-12      -7.500735220710e-15 
   98       3.651394649004e-10       1.052776619630e-13      -3.150138830320e-12       3.774392756440e-16       1.016345127623e-11       1.584597794792e-12      -7.424867667544e-15 
   99       3.694627417925e-10       1.073076706514e-13      -3.241431500085e-12       3.852837717445e-16       9.897319798251e-12       1.550471593793e-12      -7.353095725949e-15 
  100       3.738133673668e-10       1.093144844555e-13      -3.332731420797e-12       3.932168012722e-16       9.639428007250e-12       1.517345984698e-12      -7.285403266729e-15 
  101       3.781911873892e-10       1.112961322782e-13      -3.423964237665e-12       4.012389875498e-16       9.389795455175e-12       1.485223561928e-12      -7.221404839324e-15 
  102       3.825959058505e-10       1.132506355465e-13      -3.515054587839e-12       4.093509786378e-16       9.148375875998e-12       1.454098341978e-12      -7.160653938329e-15 
  103       3.870270792058e-10       1.151760091965e-13      -3.605926126171e-12       4.175534477950e-16       8.915054836422e-12       1.423955455340e-12      -7.102641170092e-15 
  104       3.914841106143e-10       1.170702626582e-13      -3.696501550987e-12       4.258470939388e-16       8.689647386592e-12       1.394770838440e-12      -7.046792419315e-15 
  105       3.959662441788e-10       1.189314008401e-13      -3.786702629844e-12       4.342326421061e-16       8.471895710805e-12       1.366510925562e-12      -6.992467015658e-15 
  106       4.004725591857e-10       1.207574251144e-13      -3.876450225301e-12       4.427108439139e-16       8.261466778218e-12       1.339132340780e-12      -6.938955900333e-15 
  107       4.050019643439e-10       1.225463343009e-13      -3.965664320677e-12       4.512824780198e-16       8.057949993560e-12       1.312581589885e-12      -6.885479792711e-15 
