# dimensionless total [l(l+1)/2pi] C_l's
# for l=2 to 3000, i.e. number of multipoles equal to 2999
#
# -> if you prefer output in CAMB/HealPix/LensPix units/order, set 'format' to 'camb' in input file
# -> if you don't want to see such a header, set 'headers' to 'no' in input file
# -> for CMB lensing (phi), these are C_l^phi-phi for the lensing potential.
#    Remember the conversion factors:
#    C_l^dd (deflection) = l(l+1) C_l^phi-phi
#    C_l^gg (shear/convergence) = 1/4 (l(l+1))^2 C_l^phi-phi
#
# 1:l     2:TT                     3:EE                     4:TE                     5:BB                     6:phiphi                 7:TPhi                   8:Ephi               
    2       1.538868060931e-10       4.308618739071e-15       3.243953355520e-13       0.000000000000e+00       7.749571171406e-09       5.418129581466e-10      -1.847791041394e-12 
    3       1.430516163532e-10       5.350572383471e-15       3.758343179050e-13       0.000000000000e+00       4.766001493716e-09       3.801340502791e-10      -1.373345631115e-12 
    4       1.335108800170e-10       4.442210356573e-15       3.558260507419e-13       0.000000000000e+00       3.306611200826e-09       2.861948976355e-10      -8.686700022333e-13 
    5       1.264382678193e-10       2.837302149949e-15       3.046059950071e-13       0.000000000000e+00       2.464012847240e-09       2.252497732426e-10      -4.536371480578e-13 
    6       1.214968062660e-10       1.537806852991e-15       2.458497072046e-13       0.000000000000e+00       1.922277146896e-09       1.828639349515e-10      -1.586409004079e-13 
    7       1.182008067098e-10       8.404060838745e-16       1.933838533244e-13       0.000000000000e+00       1.549191015042e-09       1.519588193757e-10       1.876986953471e-14 
    8       1.160763959305e-10       5.680692733536e-16       1.533289909610e-13       0.000000000000e+00       1.279173480461e-09       1.285769173593e-10       9.878170112215e-14 
    9       1.148379268739e-10       4.622016817771e-16       1.270385233927e-13       0.000000000000e+00       1.076278751433e-09       1.104015331224e-10       1.097577376600e-13 
   10       1.142919592163e-10       3.866735370793e-16       1.130127075615e-13       0.000000000000e+00       9.193208689375e-10       9.600992522612e-11       8.118560967215e-14 
   11       1.142178629334e-10       3.229607812169e-16       1.085047192342e-13       0.000000000000e+00       7.882684060878e-10       8.512742653621e-11       3.886558630972e-14 
   12       1.145324068544e-10       2.881712590538e-16       1.105508469472e-13       0.000000000000e+00       6.892802146275e-10       7.541328595940e-11      -1.055167588261e-16 
   13       1.151420950767e-10       2.846160245828e-16       1.164995965178e-13       0.000000000000e+00       6.079373890070e-10       6.718616668204e-11      -2.583925366634e-14 
   14       1.159915044404e-10       3.004879596082e-16       1.243478500081e-13       0.000000000000e+00       5.402059324548e-10       6.032174175979e-11      -3.582763632739e-14 
   15       1.170517973159e-10       3.279043469415e-16       1.328258383956e-13       0.000000000000e+00       4.831582957699e-10       5.447468457196e-11      -3.312172693976e-14 
   16       1.182492597403e-10       3.691779700037e-16       1.414776707354e-13       0.000000000000e+00       4.346182204826e-10       4.936610768056e-11      -2.332227643200e-14 
   17       1.196407419504e-10       4.301232817624e-16       1.502292559790e-13       0.000000000000e+00       3.929492882866e-10       4.493963439456e-11      -1.192795693599e-14 
   18       1.211127608574e-10       5.131755791032e-16       1.592123994490e-13       0.000000000000e+00       3.567645583652e-10       4.104712786744e-11      -3.421016448938e-15 
   19       1.226755290449e-10       6.173727066032e-16       1.686545997105e-13       0.000000000000e+00       3.254845037029e-10       3.764892013493e-11       5.585416272843e-16 
   20       1.243402774349e-10       7.402826594309e-16       1.787363728468e-13       0.000000000000e+00       2.979231677285e-10       3.466612595827e-11      -3.366691323873e-16 
   21       1.260969864371e-10       8.818998255571e-16       1.892404836381e-13       0.000000000000e+00       2.736503009811e-10       3.204584196446e-11      -4.603643941438e-15 
   22       1.278995463964e-10       1.042699069434e-15       1.997570834981e-13       0.000000000000e+00       2.520841689599e-10       2.970057807679e-11      -9.744400644283e-15 
   23       1.297658002608e-10       1.222638778597e-15       2.100033722370e-13       0.000000000000e+00       2.329379405760e-10       2.760109671565e-11      -1.400805239316e-14 
   24       1.317087488160e-10       1.421544896204e-15       2.196946337856e-13       0.000000000000e+00       2.157764722284e-10       2.570927979809e-11      -1.596033871040e-14 
   25       1.337163523206e-10       1.640564790429e-15       2.285346161092e-13       0.000000000000e+00       2.003686046103e-10       2.399631994602e-11      -1.565148123962e-14 
   26       1.357560747073e-10       1.881343439829e-15       2.362477196105e-13       0.000000000000e+00       1.864145066126e-10       2.242325724040e-11      -1.375327778124e-14 
   27       1.378372100612e-10       2.145519845412e-15       2.428137126896e-13       0.000000000000e+00       1.738426659783e-10       2.098814647135e-11      -1.100520864549e-14 
   28       1.399669420374e-10       2.434838599424e-15       2.483314489869e-13       0.000000000000e+00       1.625015087109e-10       1.968602002134e-11      -8.368201839813e-15 
   29       1.421380426609e-10       2.751057102915e-15       2.529252986235e-13       0.000000000000e+00       1.521166588667e-10       1.849840356223e-11      -6.832171520099e-15 
   30       1.443547291865e-10       3.095435864003e-15       2.566117566716e-13       0.000000000000e+00       1.426313567042e-10       1.741913770848e-11      -6.473198690090e-15 
   31       1.466132258191e-10       3.469039767378e-15       2.593826770959e-13       0.000000000000e+00       1.339756332807e-10       1.643587121615e-11      -7.018478805044e-15 
   32       1.489000931940e-10       3.872835545412e-15       2.612133296181e-13       0.000000000000e+00       1.260130881136e-10       1.552834232987e-11      -8.095458620910e-15 
   33       1.512166556293e-10       4.307607786589e-15       2.619701376742e-13       0.000000000000e+00       1.187006096940e-10       1.469069988901e-11      -9.301329399436e-15 
   34       1.535611278954e-10       4.773995103432e-15       2.614661081298e-13       0.000000000000e+00       1.119736739223e-10       1.391577335248e-11      -1.014424729039e-14 
   35       1.559264529871e-10       5.272607224243e-15       2.595184281536e-13       0.000000000000e+00       1.057324576837e-10       1.319242213701e-11      -1.016940309329e-14 
   36       1.583190588105e-10       5.804391163257e-15       2.560731350407e-13       0.000000000000e+00       9.996093745715e-11       1.251911405375e-11      -9.485664215857e-15 
   37       1.607450887435e-10       6.370384896035e-15       2.511232130160e-13       0.000000000000e+00       9.464120342524e-11       1.189415920243e-11      -8.423264319214e-15 
   38       1.632045223355e-10       6.971619612893e-15       2.446768002023e-13       0.000000000000e+00       8.971744989101e-11       1.131160674859e-11      -7.402282073739e-15 
   39       1.656932939623e-10       7.609057347103e-15       2.367505353525e-13       0.000000000000e+00       8.511614080266e-11       1.076365570183e-11      -6.826182824901e-15 
   40       1.682122542522e-10       8.283379715775e-15       2.273445274074e-13       0.000000000000e+00       8.082328496442e-11       1.024984176064e-11      -6.703577963935e-15 
   41       1.707600692015e-10       8.995126149968e-15       2.164604625401e-13       0.000000000000e+00       7.682765537183e-11       9.770318422347e-12      -6.907949866833e-15 
   42       1.733301594365e-10       9.744744217927e-15       2.041088608469e-13       0.000000000000e+00       7.309772756399e-11       9.323138855713e-12      -7.276909627163e-15 
   43       1.759145162689e-10       1.053264733596e-14       1.902935871630e-13       0.000000000000e+00       6.959335482324e-11       8.905166953913e-12      -7.647293408480e-15 
   44       1.785177605320e-10       1.135942206825e-14       1.749587073069e-13       0.000000000000e+00       6.630918546644e-11       8.515586692679e-12      -7.979136022689e-15 
   45       1.811466214823e-10       1.222567645320e-14       1.580257052258e-13       0.000000000000e+00       6.324190760362e-11       8.153176250687e-12      -8.266362930071e-15 
   46       1.838057786408e-10       1.313198125634e-14       1.394073086643e-13       0.000000000000e+00       6.037721246863e-11       7.815196228629e-12      -8.502693849380e-15 
   47       1.864976336850e-10       1.407886861881e-14       1.190068671583e-13       0.000000000000e+00       5.768893686782e-11       7.497274811605e-12      -8.681647656502e-15 
   48       1.892227649087e-10       1.506677915024e-14       9.673595026260e-14       0.000000000000e+00       5.514712414464e-11       7.194673207511e-12      -8.801618302753e-15 
   49       1.919819743426e-10       1.609588872459e-14       7.257445965934e-14       0.000000000000e+00       5.274689501442e-11       6.906771729466e-12      -8.882783112331e-15 
   50       1.947744257765e-10       1.716623053829e-14       4.652639323993e-14       0.000000000000e+00       5.048624169502e-11       6.633650981177e-12      -8.954969143324e-15 
   51       1.975968240476e-10       1.827773851941e-14       1.860340434098e-14       0.000000000000e+00       4.835742732433e-11       6.374778667454e-12      -9.053255440931e-15 
   52       2.004432217570e-10       1.943024334584e-14      -1.117489065838e-14       0.000000000000e+00       4.634658343536e-11       6.128965178833e-12      -9.218236661613e-15 
   53       2.033074485631e-10       2.062356636551e-14      -4.278989446537e-14       0.000000000000e+00       4.443806740685e-11       5.894818444228e-12      -9.483499164913e-15 
   54       2.061915773500e-10       2.185783887604e-14      -7.625439490063e-14       0.000000000000e+00       4.262977683901e-11       5.672348042017e-12      -9.833661653483e-15 
   55       2.090992982084e-10       2.313325800581e-14      -1.115894711798e-13       0.000000000000e+00       4.092107161658e-11       5.461696165016e-12      -1.023600444259e-14 
   56       2.120334049700e-10       2.444999611867e-14      -1.488159677324e-13       0.000000000000e+00       3.930816025243e-11       5.262651504689e-12      -1.065204616321e-14 
   57       2.149957118852e-10       2.580820093695e-14      -1.879545761108e-13       0.000000000000e+00       3.778389694225e-11       5.074625769451e-12      -1.103727122125e-14 
   58       2.179869703016e-10       2.720799566466e-14      -2.290259168991e-13       0.000000000000e+00       3.633757861927e-11       4.896630202962e-12      -1.134085725689e-14 
   59       2.210074336084e-10       2.864932947199e-14      -2.720439617366e-13       0.000000000000e+00       3.495789196474e-11       4.727545900673e-12      -1.151835307510e-14 
   60       2.240588945168e-10       3.013148812307e-14      -3.169943295003e-13       0.000000000000e+00       3.364301455523e-11       4.567061396940e-12      -1.157376951089e-14 
   61       2.271429744780e-10       3.165346971704e-14      -3.638510856545e-13       0.000000000000e+00       3.239250499448e-11       4.414911699951e-12      -1.152679901078e-14 
   62       2.302604569213e-10       3.321411948572e-14      -4.125828180570e-13       0.000000000000e+00       3.120426500799e-11       4.270590391605e-12      -1.140088766785e-14 
   63       2.334112259075e-10       3.481212484429e-14      -4.631524931092e-13       0.000000000000e+00       3.007444327583e-11       4.133336105076e-12      -1.122340168015e-14 
   64       2.365942047816e-10       3.644601044183e-14      -5.155173119063e-13       0.000000000000e+00       2.899733926560e-11       4.002119002377e-12      -1.102579380890e-14 
   65       2.398080848063e-10       3.811433371162e-14      -5.696360872396e-13       0.000000000000e+00       2.796697632012e-11       3.875914273127e-12      -1.083697709499e-14 
   66       2.430538282108e-10       3.981633077449e-14      -6.254935135902e-13       0.000000000000e+00       2.698242414846e-11       3.754620327089e-12      -1.066144103208e-14 
   67       2.463325871472e-10       4.155139888327e-14      -6.830807951426e-13       0.000000000000e+00       2.604343496942e-11       3.638311460888e-12      -1.049678464329e-14 
   68       2.496449219712e-10       4.331890864018e-14      -7.423886437584e-13       0.000000000000e+00       2.514882517078e-11       3.526962604346e-12      -1.034007716011e-14 
   69       2.529907619925e-10       4.511820465575e-14      -8.034073455004e-13       0.000000000000e+00       2.429642583461e-11       3.420443826611e-12      -1.018783447387e-14 
   70       2.563693662253e-10       4.694860620785e-14      -8.661268271557e-13       0.000000000000e+00       2.348303326258e-11       3.318514842285e-12      -1.003599558735e-14 
   71       2.597792841390e-10       4.880940790066e-14      -9.305367227598e-13       0.000000000000e+00       2.270435950134e-11       3.220819517553e-12      -9.879899066248e-15 
   72       2.632190716227e-10       5.069978067078e-14      -9.966219557834e-13       0.000000000000e+00       2.195613517348e-11       3.126985713644e-12      -9.715719137494e-15 
   73       2.666896852037e-10       5.261845134241e-14      -1.064348356126e-12       0.000000000000e+00       2.123777298806e-11       3.036959213267e-12      -9.545145446929e-15 
   74       2.701924786089e-10       5.456396246733e-14      -1.133674389671e-12       0.000000000000e+00       2.054932130635e-11       2.950724261480e-12      -9.371563207399e-15 
   75       2.737284666380e-10       5.653476493906e-14      -1.204555362749e-12       0.000000000000e+00       1.989035137138e-11       2.868200871273e-12      -9.198682754042e-15 
   76       2.772983031565e-10       5.852921637665e-14      -1.276943386286e-12       0.000000000000e+00       1.925993414162e-11       2.789241734654e-12      -9.030549321101e-15 
   77       2.809022590884e-10       6.054557950848e-14      -1.350787339936e-12       0.000000000000e+00       1.865661712465e-11       2.713629133740e-12      -8.871552818722e-15 
   78       2.845402004091e-10       6.258202055611e-14      -1.426032836233e-12       0.000000000000e+00       1.807840121080e-11       2.641071851849e-12      -8.726437609762e-15 
   79       2.882115661384e-10       6.463660761803e-14      -1.502622184722e-12       0.000000000000e+00       1.752271750690e-11       2.571202084583e-12      -8.600312286592e-15 
   80       2.919157460177e-10       6.670739612145e-14      -1.580497111837e-12       0.000000000000e+00       1.698706517952e-11       2.503666591633e-12      -8.497337264555e-15 
   81       2.956533374908e-10       6.879270582359e-14      -1.659607543364e-12       0.000000000000e+00       1.647110351946e-11       2.438425178113e-12      -8.416503572046e-15 
   82       2.994250678658e-10       7.089088919091e-14      -1.739904288873e-12       0.000000000000e+00       1.597488260835e-11       2.375498653132e-12      -8.355135395008e-15 
   83       3.032313996392e-10       7.300024860017e-14      -1.821336436398e-12       0.000000000000e+00       1.549820382204e-11       2.314877870142e-12      -8.310132667278e-15 
   84       3.070725158907e-10       7.511903633455e-14      -1.903851367608e-12       0.000000000000e+00       1.504060890520e-11       2.256522383234e-12      -8.277956362517e-15 
   85       3.109483056773e-10       7.724545457983e-14      -1.987394772984e-12       0.000000000000e+00       1.460136904592e-11       2.200359103421e-12      -8.254613786141e-15 
   86       3.148583494283e-10       7.937765542058e-14      -2.071910666990e-12       0.000000000000e+00       1.417947395030e-11       2.146280954927e-12      -8.235643867246e-15 
   87       3.188019043390e-10       8.151374083634e-14      -2.157341403248e-12       0.000000000000e+00       1.377362091704e-11       2.094145531476e-12      -8.216102450536e-15 
   88       3.227778897658e-10       8.365176269778e-14      -2.243627689711e-12       0.000000000000e+00       1.338220391207e-11       2.043773752579e-12      -8.190547588252e-15 
   89       3.267852469082e-10       8.578974462267e-14      -2.330708585789e-12       0.000000000000e+00       1.300369584235e-11       1.994993849704e-12      -8.154242561980e-15 
   90       3.308241143534e-10       8.792575148134e-14      -2.418521460139e-12       0.000000000000e+00       1.263788791584e-11       1.947784161402e-12      -8.107013281938e-15 
   91       3.348948108850e-10       9.005783083804e-14      -2.507002054181e-12       0.000000000000e+00       1.228482547214e-11       1.902150366632e-12      -8.049971704721e-15 
   92       3.389974687385e-10       9.218399238088e-14      -2.596084514247e-12       0.000000000000e+00       1.194442712590e-11       1.858081493606e-12      -7.984355455764e-15 
   93       3.431320246030e-10       9.430220824553e-14      -2.685701406486e-12       0.000000000000e+00       1.161647973191e-11       1.815549255178e-12      -7.911531364419e-15 
   94       3.472982106232e-10       9.641041333880e-14      -2.775783731766e-12       0.000000000000e+00       1.130063335044e-11       1.774507384234e-12      -7.832998999027e-15 
   95       3.514955454011e-10       9.850650566241e-14      -2.866260940579e-12       0.000000000000e+00       1.099639621238e-11       1.734890969073e-12      -7.750394201987e-15 
   96       3.557233249976e-10       1.005883466365e-13      -2.957060947943e-12       0.000000000000e+00       1.070312968449e-11       1.696615788799e-12      -7.665492624831e-15 
   97       3.599806139344e-10       1.026537614236e-13      -3.048110148303e-12       0.000000000000e+00       1.042004323465e-11       1.659577648708e-12      -7.580213263294e-15 
   98       3.642662361957e-10       1.047005392518e-13      -3.139333430440e-12       0.000000000000e+00       1.014618939703e-11       1.623651715673e-12      -7.496621992389e-15 
   99       3.685790485639e-10       1.067264858047e-13      -3.230655061580e-12       0.000000000000e+00       9.880680803956e-12       1.588721774398e-12      -7.416513451023e-15 
  100       3.729188242516e-10       1.087295881574e-13      -3.322001450420e-12       0.000000000000e+00       9.623387240668e-12       1.554774161102e-12      -7.340081480173e-15 
  101       3.772854782951e-10       1.107078739120e-13      -3.413298804969e-12       0.000000000000e+00       9.374328428553e-12       1.521815961976e-12      -7.267066054741e-15 
  102       3.816787908799e-10       1.126593621586e-13      -3.504472323369e-12       0.000000000000e+00       9.133458453280e-12       1.489845981173e-12      -7.197156577331e-15 
  103       3.860984017657e-10       1.145820644305e-13      -3.595446219330e-12       0.000000000000e+00       8.900663421731e-12       1.458854438873e-12      -7.129990302403e-15 
  104       3.905438047099e-10       1.164739856582e-13      -3.686143747575e-12       0.000000000000e+00       8.675759118937e-12       1.428822669344e-12      -7.065150760434e-15 
  105       3.950143418916e-10       1.183331251249e-13      -3.776487229274e-12       0.000000000000e+00       8.458488665015e-12       1.399722819014e-12      -7.002166182074e-15 
  106       3.995091983357e-10       1.201574774207e-13      -3.866398077485e-12       0.000000000000e+00       8.248520172112e-12       1.371517544526e-12      -6.940507922304e-15 
  107       4.040273963368e-10       1.219450333978e-13      -3.955796822596e-12       0.000000000000e+00       8.045444401338e-12       1.344159710811e-12      -6.879588884594e-15 
