# dimensionless total [l(l+1)/2pi] C_l's
# for l=2 to 3000, i.e. number of multipoles equal to 2999
#
# -> if you prefer output in CAMB/HealPix/LensPix units/order, set 'format' to 'camb' in input file
# -> if you don't want to see such a header, set 'headers' to 'no' in input file
# -> for CMB lensing (phi), these are C_l^phi-phi for the lensing potential.
#    Remember the conversion factors:
#    C_l^dd (deflection) = l(l+1) C_l^phi-phi
#    C_l^gg (shear/convergence) = 1/4 (l(l+1))^2 C_l^phi-phi
#
# 1:l     2:TT                     3:EE                     4:TE                     5:BB                     6:phiphi                 7:TPhi                   8:Ephi               
    2       1.568016267821e-10       4.342335906574e-15       3.356369913725e-13       0.000000000000e+00       7.764999420565e-09       5.540870863668e-10      -1.845193958676e-12 
    3       1.447455711034e-10       5.369125193521e-15       3.852307586756e-13       0.000000000000e+00       4.764469183972e-09       3.871386493173e-10      -1.369469217462e-12 
    4       1.345332098466e-10       4.440132101174e-15       3.618220476285e-13       0.000000000000e+00       3.306970623011e-09       2.906159546568e-10      -8.631355785098e-13 
    5       1.270764543142e-10       2.825909506618e-15       3.075093022799e-13       0.000000000000e+00       2.466095080844e-09       2.281834688755e-10      -4.476051693659e-13 
    6       1.219144992301e-10       1.527848720586e-15       2.465681512073e-13       0.000000000000e+00       1.924962291370e-09       1.848671096272e-10      -1.532816065062e-13 
    7       1.184861449077e-10       8.352251795980e-16       1.929022600738e-13       0.000000000000e+00       1.551854209341e-09       1.533589509907e-10       2.275936725731e-14 
    8       1.162693563180e-10       5.656839536153e-16       1.524433682455e-13       0.000000000000e+00       1.281628591853e-09       1.295760797655e-10       1.011691830623e-13 
    9       1.149690639774e-10       4.602205228748e-16       1.262480347568e-13       0.000000000000e+00       1.078473791407e-09       1.111098619371e-10       1.106990013452e-13 
   10       1.143894888889e-10       3.846083928543e-16       1.125598543448e-13       0.000000000000e+00       9.212696999464e-10       9.648148199042e-11       8.109843702049e-14 
   11       1.142654944905e-10       3.214895516338e-16       1.084390865812e-13       0.000000000000e+00       7.905153786917e-10       8.538700272266e-11       3.825327040228e-14 
   12       1.145561928332e-10       2.876853353530e-16       1.108061763414e-13       0.000000000000e+00       6.913071808951e-10       7.561156417132e-11      -6.577874054565e-16 
   13       1.151706075511e-10       2.848204882157e-16       1.169004577146e-13       0.000000000000e+00       6.097737566775e-10       6.727330031421e-11      -2.612156132129e-14 
   14       1.159938822855e-10       3.009675392882e-16       1.247626787229e-13       0.000000000000e+00       5.418715117091e-10       6.032618570380e-11      -3.571356792587e-14 
   15       1.170425609824e-10       3.285219151993e-16       1.332303257482e-13       0.000000000000e+00       4.846721584782e-10       5.445027937120e-11      -3.260051281347e-14 
   16       1.182601825468e-10       3.701602258525e-16       1.417375151654e-13       0.000000000000e+00       4.360002338291e-10       4.928454220566e-11      -2.263565150176e-14 
   17       1.196064075760e-10       4.318624544345e-16       1.503508752273e-13       0.000000000000e+00       3.942133865338e-10       4.479531913381e-11      -1.135455227392e-14 
   18       1.210790654080e-10       5.157046447047e-16       1.593420750166e-13       0.000000000000e+00       3.579228656223e-10       4.088134656428e-11      -3.103918602963e-15 
   19       1.226802274816e-10       6.206149025291e-16       1.688584126319e-13       0.000000000000e+00       3.265483873661e-10       3.749043790874e-11       5.876390202026e-16 
   20       1.243524589184e-10       7.441996474142e-16       1.789433752796e-13       0.000000000000e+00       2.989019230358e-10       3.450912426812e-11      -5.206918335389e-16 
   21       1.261008360736e-10       8.865772566614e-16       1.894441265128e-13       0.000000000000e+00       2.745525613372e-10       3.187147934578e-11      -4.884924678628e-15 
   22       1.279181887219e-10       1.048348357006e-15       2.000637673496e-13       0.000000000000e+00       2.529172201703e-10       2.948982397922e-11      -9.998406579532e-15 
   23       1.298048994717e-10       1.229335940110e-15       2.104351235216e-13       0.000000000000e+00       2.337084153935e-10       2.736501433495e-11      -1.414663957000e-14 
   24       1.317425054612e-10       1.429167517982e-15       2.201343870697e-13       0.000000000000e+00       2.164899034295e-10       2.549157467683e-11      -1.595629300719e-14 
   25       1.337345077898e-10       1.649061483170e-15       2.288838318208e-13       0.000000000000e+00       2.010302527040e-10       2.380954163399e-11      -1.553046479767e-14 
   26       1.357770201541e-10       1.890827713900e-15       2.364803974023e-13       0.000000000000e+00       1.870291700209e-10       2.223240817579e-11      -1.358900066675e-14 
   27       1.378779574505e-10       2.156190492322e-15       2.429396455481e-13       0.000000000000e+00       1.744148976383e-10       2.076536412129e-11      -1.087430814929e-14 
   28       1.400311067741e-10       2.446965053519e-15       2.483902413511e-13       0.000000000000e+00       1.630351487768e-10       1.943346353487e-11      -8.331235374888e-15 
   29       1.422151908338e-10       2.764958809441e-15       2.529798874860e-13       0.000000000000e+00       1.526144475965e-10       1.824770847290e-11      -6.923707365155e-15 
   30       1.444334235906e-10       3.111341530593e-15       2.566932454245e-13       0.000000000000e+00       1.430959602397e-10       1.719456044619e-11      -6.685797636476e-15 
   31       1.466858082589e-10       3.487014859924e-15       2.594631332542e-13       0.000000000000e+00       1.344097379116e-10       1.623899119212e-11      -7.288763852756e-15 
   32       1.489634261084e-10       3.892793916723e-15       2.612113602229e-13       0.000000000000e+00       1.264191804695e-10       1.533858640981e-11      -8.312440441570e-15 
   33       1.512704969288e-10       4.329523349770e-15       2.618322818307e-13       0.000000000000e+00       1.190810381738e-10       1.449075847778e-11      -9.390722560395e-15 
   34       1.536081095722e-10       4.797989058029e-15       2.612012055538e-13       0.000000000000e+00       1.123304863112e-10       1.370139275108e-11      -1.010609776595e-14 
   35       1.559719670321e-10       5.298941679201e-15       2.591942683191e-13       0.000000000000e+00       1.060672826837e-10       1.297243920432e-11      -1.007652352855e-14 
   36       1.583685420211e-10       5.833309279199e-15       2.557468914280e-13       0.000000000000e+00       1.002753568189e-10       1.230320793613e-11      -9.410006197995e-15 
   37       1.608030044277e-10       6.402051506841e-15       2.508151190147e-13       0.000000000000e+00       9.493677638297e-11       1.168871670097e-11      -8.409622774936e-15 
   38       1.632739963080e-10       7.006100721357e-15       2.443605148671e-13       0.000000000000e+00       8.999559325540e-11       1.111875355574e-11      -7.460369109361e-15 
   39       1.657759719424e-10       7.646332437119e-15       2.363565747281e-13       0.000000000000e+00       8.537806438981e-11       1.058130800855e-11      -6.931476867712e-15 
   40       1.683089803630e-10       8.323469366730e-15       2.268098699306e-13       0.000000000000e+00       8.107014317117e-11       1.007540440289e-11      -6.829467225613e-15 
   41       1.708709778710e-10       9.038141331373e-15       2.157466115773e-13       0.000000000000e+00       7.706053742319e-11       9.601865054840e-12      -7.036310321132e-15 
   42       1.734545347794e-10       9.790905965928e-15       2.032079124769e-13       0.000000000000e+00       7.331758137862e-11       9.159624710008e-12      -7.400413306686e-15 
   43       1.760507946633e-10       1.058227932931e-14       1.892266042220e-13       0.000000000000e+00       6.980095931244e-11       8.746421592665e-12      -7.769298377675e-15 
   44       1.786640356818e-10       1.141284890993e-14       1.737472344883e-13       0.000000000000e+00       6.650530097998e-11       8.361530248981e-12      -8.105063362830e-15 
   45       1.813007897641e-10       1.228318890487e-14       1.566824166105e-13       0.000000000000e+00       6.342729324500e-11       8.003594630367e-12      -8.401186300816e-15 
   46       1.839655479312e-10       1.319382668399e-14       1.379338820227e-13       0.000000000000e+00       6.055259085931e-11       7.669729564052e-12      -8.650755547600e-15 
   47       1.866605335233e-10       1.414524086815e-14       1.173917315266e-13       0.000000000000e+00       5.785495613012e-11       7.355405639313e-12      -8.846462711638e-15 
   48       1.893862827664e-10       1.513781451956e-14       9.495616205831e-14       0.000000000000e+00       5.530434367156e-11       7.055774977879e-12      -8.985413159455e-15 
   49       1.921441091257e-10       1.617168359399e-14       7.061163628125e-14       0.000000000000e+00       5.289585701913e-11       6.770359067385e-12      -9.085177518784e-15 
   50       1.949339440033e-10       1.724684246730e-14       4.437233408862e-14       0.000000000000e+00       5.062747638226e-11       6.499484592384e-12      -9.172252759482e-15 
   51       1.977534090383e-10       1.836318098510e-14       1.626189070638e-14       0.000000000000e+00       4.849143221403e-11       6.242917348864e-12      -9.277872527213e-15 
   52       2.005976305254e-10       1.952048025084e-14      -1.368620532899e-14       0.000000000000e+00       4.647380126032e-11       5.999820644971e-12      -9.438245873052e-15 
   53       2.034614814673e-10       2.071852123096e-14      -4.544189493792e-14       0.000000000000e+00       4.455887996344e-11       5.769106504110e-12      -9.683566924164e-15 
   54       2.063474117634e-10       2.195745305231e-14      -7.902332279163e-14       0.000000000000e+00       4.274455479447e-11       5.550691054655e-12      -1.000117653206e-14 
   55       2.092593080572e-10       2.323751206894e-14      -1.144628827897e-13       0.000000000000e+00       4.103018026355e-11       5.344489453146e-12      -1.036334397691e-14 
   56       2.122001604369e-10       2.455891784123e-14      -1.517947167818e-13       0.000000000000e+00       3.941194846278e-11       5.150026774320e-12      -1.073744000084e-14 
   57       2.151719786418e-10       2.592187365421e-14      -1.910548902060e-13       0.000000000000e+00       3.788268542378e-11       4.966412881541e-12      -1.108570471742e-14 
   58       2.181757082691e-10       2.732656703585e-14      -2.322815677270e-13       0.000000000000e+00       3.643164747527e-11       4.792317297227e-12      -1.136501552126e-14 
   59       2.212116105121e-10       2.877300273529e-14      -2.755035410101e-13       0.000000000000e+00       3.504747905854e-11       4.626328846838e-12      -1.153737464636e-14 
   60       2.242806946667e-10       3.026045518640e-14      -3.207023020218e-13       0.000000000000e+00       3.372835080322e-11       4.468189195359e-12      -1.160474304597e-14 
   61       2.273834707938e-10       3.178788957996e-14      -3.678414567836e-13       0.000000000000e+00       3.247382008970e-11       4.317801870872e-12      -1.158190016637e-14 
   62       2.305194487463e-10       3.335411316814e-14      -4.168773840882e-13       0.000000000000e+00       3.128178209460e-11       4.174860838787e-12      -1.148656417231e-14 
   63       2.336870700889e-10       3.495777010340e-14      -4.677590162953e-13       0.000000000000e+00       3.014837331644e-11       4.038838415438e-12      -1.133952323446e-14 
   64       2.368836400170e-10       3.659733627750e-14      -5.204276201273e-13       0.000000000000e+00       2.906787510123e-11       3.908973181684e-12      -1.116476681691e-14 
   65       2.401064930763e-10       3.827132398877e-14      -5.748279681026e-13       0.000000000000e+00       2.803429146830e-11       3.784480320662e-12      -1.098473675812e-14 
   66       2.433569301846e-10       3.997895791575e-14      -6.309450950955e-13       0.000000000000e+00       2.704668767172e-11       3.665261554400e-12      -1.080461665767e-14 
   67       2.466369961667e-10       4.171963350030e-14      -6.887749573319e-13       0.000000000000e+00       2.610481313765e-11       3.551324398193e-12      -1.062494011091e-14 
   68       2.499482865854e-10       4.349272044663e-14      -7.483138261975e-13       0.000000000000e+00       2.520747821555e-11       3.442567248257e-12      -1.044617219866e-14 
   69       2.532919141734e-10       4.529756342962e-14      -8.095583876528e-13       0.000000000000e+00       2.435250453748e-11       3.338773516986e-12      -1.026870426539e-14 
   70       2.566684752645e-10       4.713348280317e-14      -8.725058416475e-13       0.000000000000e+00       2.353667537720e-11       3.239605768206e-12      -1.009284869738e-14 
   71       2.600780162246e-10       4.899977530841e-14      -9.371540015357e-13       0.000000000000e+00       2.275568600949e-11       3.144599852432e-12      -9.918833700924e-15 
   72       2.635204122180e-10       5.089561177760e-14      -1.003494817860e-12       0.000000000000e+00       2.200525058460e-11       3.053286862635e-12      -9.747025659844e-15 
   73       2.669966622751e-10       5.281970593888e-14      -1.071493289620e-12       0.000000000000e+00       2.128477903697e-11       2.965599135614e-12      -9.578657225001e-15 
   74       2.705077833064e-10       5.477058302264e-14      -1.141104665836e-12       0.000000000000e+00       2.059431953634e-11       2.881531946897e-12      -9.415230195579e-15 
   75       2.740543960490e-10       5.674667551770e-14      -1.212280612657e-12       0.000000000000e+00       1.993344166673e-11       2.801019698985e-12      -9.258300297283e-15 
   76       2.776367009125e-10       5.874632152792e-14      -1.284969162648e-12       0.000000000000e+00       1.930121319014e-11       2.723932974880e-12      -9.109477156385e-15 
   77       2.812544538237e-10       6.076776312881e-14      -1.359114664076e-12       0.000000000000e+00       1.869617681017e-11       2.650075591618e-12      -8.970424273781e-15 
   78       2.849069420723e-10       6.280914472416e-14      -1.434657730194e-12       0.000000000000e+00       1.811632693571e-11       2.579181653800e-12      -8.842858999048e-15 
   79       2.885929601559e-10       6.486851140257e-14      -1.511535188533e-12       0.000000000000e+00       1.755908644464e-11       2.510912607123e-12      -8.728552504492e-15 
   80       2.923113109913e-10       6.694389728563e-14      -1.589683964035e-12       0.000000000000e+00       1.702194643461e-11       2.444941592797e-12      -8.628808809257e-15 
   81       2.960624629310e-10       6.903361185723e-14      -1.669053616673e-12       0.000000000000e+00       1.650456454569e-11       2.381229863908e-12      -8.542797713533e-15 
   82       2.998471377667e-10       7.113600059267e-14      -1.749595898807e-12       0.000000000000e+00       1.600699033291e-11       2.319793219111e-12      -8.468930948734e-15 
   83       3.036657967193e-10       7.324935940650e-14      -1.831261036518e-12       0.000000000000e+00       1.552902385580e-11       2.260617656169e-12      -8.405347889141e-15 
   84       3.075186260131e-10       7.537193467569e-14      -1.913997751742e-12       0.000000000000e+00       1.507020471961e-11       2.203658042168e-12      -8.349905878734e-15 
   85       3.114055224505e-10       7.750192326270e-14      -1.997753284405e-12       0.000000000000e+00       1.462980111652e-11       2.148836783732e-12      -8.300170558030e-15 
   86       3.153260789856e-10       7.963747253858e-14      -2.082473414560e-12       0.000000000000e+00       1.420679886685e-11       2.096042497237e-12      -8.253406190908e-15 
   87       3.192795702989e-10       8.177668040613e-14      -2.168102484521e-12       0.000000000000e+00       1.379989046024e-11       2.045128679023e-12      -8.206565991449e-15 
   88       3.232649383717e-10       8.391759532298e-14      -2.254583420998e-12       0.000000000000e+00       1.340746409693e-11       1.995912375614e-12      -8.156282450764e-15 
   89       3.272811583231e-10       8.605823629039e-14      -2.341857192390e-12       0.000000000000e+00       1.302798723570e-11       1.948219466440e-12      -8.099642266485e-15 
   90       3.313284331352e-10       8.819665636269e-14      -2.429861034844e-12       0.000000000000e+00       1.266125007813e-11       1.902031551391e-12      -8.036671529740e-15 
   91       3.354071606358e-10       9.033088918937e-14      -2.518529987404e-12       0.000000000000e+00       1.230729786348e-11       1.857359762326e-12      -7.968224374749e-15 
   92       3.395175613112e-10       9.245893025394e-14      -2.607797445577e-12       0.000000000000e+00       1.196604874840e-11       1.814199579118e-12      -7.895235132668e-15 
   93       3.436596695779e-10       9.457873719618e-14      -2.697595174994e-12       0.000000000000e+00       1.163728875840e-11       1.772530198182e-12      -7.818720412773e-15 
   94       3.478333250534e-10       9.668823013438e-14      -2.787853325091e-12       0.000000000000e+00       1.132066673927e-11       1.732313901006e-12      -7.739781183636e-15 
   95       3.520381638275e-10       9.878529198752e-14      -2.878500442782e-12       0.000000000000e+00       1.101568930847e-11       1.693495422678e-12      -7.659604854303e-15 
   96       3.562736097332e-10       1.008677687975e-13      -2.969463486127e-12       0.000000000000e+00       1.072171580661e-11       1.656001320416e-12      -7.579467355481e-15 
   97       3.605388656180e-10       1.029334700516e-13      -3.060667838011e-12       0.000000000000e+00       1.043795324883e-11       1.619739342099e-12      -7.500735220710e-15 
   98       3.648329046146e-10       1.049801690040e-13      -3.152037319815e-12       0.000000000000e+00       1.016345127623e-11       1.584597794792e-12      -7.424867667544e-15 
   99       3.691547064129e-10       1.070056568988e-13      -3.243495184119e-12       0.000000000000e+00       9.897319798251e-12       1.550471593793e-12      -7.353095725949e-15 
  100       3.735040231281e-10       1.090079137014e-13      -3.334967223702e-12       0.000000000000e+00       9.639428007250e-12       1.517345984698e-12      -7.285403266729e-15 
  101       3.778807061999e-10       1.109849622607e-13      -3.426379130353e-12       0.000000000000e+00       9.389795455175e-12       1.485223561928e-12      -7.221404839324e-15 
  102       3.822844653836e-10       1.129348175296e-13      -3.517655580346e-12       0.000000000000e+00       9.148375875998e-12       1.454098341978e-12      -7.160653938329e-15 
  103       3.867148629906e-10       1.148554875407e-13      -3.608720259982e-12       0.000000000000e+00       8.915054836422e-12       1.423955455340e-12      -7.102641170092e-15 
  104       3.911713081297e-10       1.167449743819e-13      -3.699495891127e-12       0.000000000000e+00       8.689647386592e-12       1.394770838440e-12      -7.046792419315e-15 
  105       3.956530509472e-10       1.186012751719e-13      -3.789904256752e-12       0.000000000000e+00       8.471895710805e-12       1.366510925562e-12      -6.992467015658e-15 
  106       4.001591768685e-10       1.204223830356e-13      -3.879866226474e-12       0.000000000000e+00       8.261466778218e-12       1.339132340780e-12      -6.938955900333e-15 
  107       4.046886008382e-10       1.222062880802e-13      -3.969301782100e-12       0.000000000000e+00       8.057949993560e-12       1.312581589885e-12      -6.885479792711e-15 
