# dimensionless total lensed [l(l+1)/2pi] C_l's
# for l=2 to 2500, i.e. number of multipoles equal to 2499
#
# -> if you prefer output in CAMB/HealPix/LensPix units/order, set 'format' to 'camb' in input file
# -> if you don't want to see such a header, set 'headers' to 'no' in input file
# -> for CMB lensing (phi), these are C_l^phi-phi for the lensing potential.
#    Remember the conversion factors:
#    C_l^dd (deflection) = l(l+1) C_l^phi-phi
#    C_l^gg (shear/convergence) = 1/4 (l(l+1))^2 C_l^phi-phi
#
# 1:l     2:TT                     3:EE                     4:TE                     5:BB                     6:phiphi                 7:TPhi                   8:Ephi               
    2       1.432616463732e-10       4.248747349540e-15       3.845181336745e-13       2.309868520265e-19       8.358517492086e-09       4.783773249779e-10      -1.827422312852e-12 
    3       1.330056386924e-10       5.401882720365e-15       4.209691410110e-13       4.620636517350e-19       5.138652456954e-09       3.336312868433e-10      -1.385206149945e-12 
    4       1.245996558766e-10       4.647919794524e-15       3.857997800454e-13       7.703044461975e-19       3.564624567368e-09       2.495760809325e-10      -9.036289923549e-13 
    5       1.186494016948e-10       3.087557549697e-15       3.228729879331e-13       1.155824960449e-18       2.655340828046e-09       1.952773487644e-10      -4.985211691105e-13 
    6       1.146759610081e-10       1.720963554482e-15       2.560782844333e-13       1.618766312717e-18       2.070395151664e-09       1.575974153754e-10      -2.010301510780e-13 
    7       1.121177799173e-10       9.291347605469e-16       1.985051449310e-13       2.159292786373e-18       1.667469096262e-09       1.301294920575e-10      -1.231751920108e-14 
    8       1.106297988705e-10       6.006028754923e-16       1.553678163006e-13       2.777589281871e-18       1.376117886859e-09       1.094538981979e-10       8.289553648922e-14 
    9       1.099387824753e-10       4.829731133840e-16       1.272841089439e-13       3.473858510932e-18       1.157448924530e-09       9.354427970825e-11       1.082411299779e-13 
   10       1.097625983804e-10       4.122959082394e-16       1.123485161154e-13       4.248318000694e-18       9.883679901909e-10       8.101716824763e-11       8.980027280741e-14 
   11       1.100558164821e-10       3.479863053419e-16       1.074535740521e-13       5.101196979012e-18       8.465341374202e-10       7.168573389150e-11       5.180276459521e-14 
   12       1.106586374111e-10       3.054562870022e-16       1.092333529422e-13       6.032733213505e-18       7.399540434092e-10       6.305993783883e-11       1.170549263410e-14 
   13       1.114871027927e-10       2.949228054597e-16       1.149069764875e-13       7.043169876291e-18       6.524098899206e-10       5.609437793806e-11      -1.855773333678e-14 
   14       1.125584265859e-10       3.079635135405e-16       1.224351212595e-13       8.132752503575e-18       5.795413258614e-10       5.014226722250e-11      -3.481451546875e-14 
   15       1.137984228722e-10       3.330901357708e-16       1.304996728056e-13       9.301726114664e-18       5.181768962998e-10       4.509679824347e-11      -3.759434892504e-14 
   16       1.151462421467e-10       3.683396329086e-16       1.386069056331e-13       1.055033254846e-17       4.659810776434e-10       4.075325545607e-11      -3.086865729691e-14 
   17       1.166183850884e-10       4.193893369643e-16       1.467383981712e-13       1.187880806755e-17       4.211893091757e-10       3.697088727204e-11      -1.987770885986e-14 
   18       1.181763977914e-10       4.915130918041e-16       1.550928897431e-13       1.328738116546e-17       3.823040976971e-10       3.369866047235e-11      -9.496359624537e-15 
   19       1.198348851979e-10       5.850903283738e-16       1.639069316358e-13       1.477627134427e-17       3.486996919622e-10       3.088083975421e-11      -2.290275406073e-15 
   20       1.215753368577e-10       6.982421003964e-16       1.733771016010e-13       1.634568655187e-17       3.190976438987e-10       2.838011062327e-11       7.838132981251e-17 
   21       1.233869081431e-10       8.302653378725e-16       1.834379026034e-13       1.799582381282e-17       2.930338298238e-10       2.614778107227e-11      -1.780296770130e-15 
   22       1.252334908454e-10       9.805302746648e-16       1.938513531218e-13       1.972686658718e-17       2.698821586899e-10       2.413329921928e-11      -6.073064548332e-15 
   23       1.271316214488e-10       1.149133824298e-15       2.042518145220e-13       2.153898703470e-17       2.493336380035e-10       2.233851682019e-11      -1.102384239034e-14 
   24       1.290917006030e-10       1.336256229742e-15       2.141865484545e-13       2.343234292011e-17       2.309200554812e-10       2.075536098480e-11      -1.476303438358e-14 
   25       1.311074681935e-10       1.542174282010e-15       2.233396623823e-13       2.540708049157e-17       2.143922464609e-10       1.934528106758e-11      -1.653047776899e-14 
   26       1.331549269348e-10       1.767351130993e-15       2.314530869776e-13       2.746333236722e-17       1.994273154886e-10       1.804953443027e-11      -1.607066845549e-14 
   27       1.352426876148e-10       2.013437053821e-15       2.384696660327e-13       2.960122474804e-17       1.859478218283e-10       1.686305687328e-11      -1.392201593874e-14 
   28       1.373742803221e-10       2.282683375740e-15       2.444232454167e-13       3.182087041858e-17       1.737904845176e-10       1.578625713028e-11      -1.110191697880e-14 
   29       1.395391871225e-10       2.577368258620e-15       2.493818894918e-13       3.412236895836e-17       1.626602518813e-10       1.480842389762e-11      -8.738010220408e-15 
   30       1.417411218864e-10       2.898606555392e-15       2.534069680287e-13       3.650581931172e-17       1.524959297267e-10       1.392349408485e-11      -7.197428405195e-15 
   31       1.439772602074e-10       3.247059384996e-15       2.565827802848e-13       3.897131089694e-17       1.432223013456e-10       1.311809527083e-11      -6.622394186909e-15 
   32       1.462355997834e-10       3.623329760174e-15       2.589833482007e-13       4.151892293623e-17       1.346929157548e-10       1.237258296821e-11      -7.060327156513e-15 
   33       1.485178065450e-10       4.028341773631e-15       2.605106642771e-13       4.414873565765e-17       1.268613859120e-10       1.168334998021e-11      -8.149086978438e-15 
   34       1.508224416936e-10       4.463090181045e-15       2.609947986417e-13       4.686082255496e-17       1.196583800884e-10       1.104743251285e-11      -9.300834969732e-15 
   35       1.531433839794e-10       4.928527184327e-15       2.602576856255e-13       4.965525010193e-17       1.129767212803e-10       1.045849641264e-11      -9.927635232924e-15 
   36       1.554890246496e-10       5.425523106910e-15       2.581971454983e-13       5.253208786444e-17       1.067990777992e-10       9.915022781045e-12      -9.978081475073e-15 
   37       1.578683023985e-10       5.954885531334e-15       2.547301357866e-13       5.549140169353e-17       1.011060991636e-10       9.414230917123e-12      -9.583256921164e-15 
   38       1.602847822186e-10       6.517364255129e-15       2.497701504618e-13       5.853325102269e-17       9.583781123004e-11       8.949461077023e-12      -8.918750830574e-15 
   39       1.627374235041e-10       7.113659746903e-15       2.432486286630e-13       6.165769027720e-17       9.091524557081e-11       8.512545608537e-12      -8.177931466008e-15 
   40       1.652247942843e-10       7.744462388228e-15       2.351886227926e-13       6.486477372687e-17       8.632331562617e-11       8.102750895395e-12      -7.472884070484e-15 
   41       1.677411962150e-10       8.410419450754e-15       2.256557960727e-13       6.815455225603e-17       8.204992582462e-11       7.720295374190e-12      -6.905143695116e-15 
   42       1.702748242533e-10       9.112120250055e-15       2.147402753703e-13       7.152707216664e-17       7.806124236296e-11       7.363747125159e-12      -6.593719600812e-15 
   43       1.728128158873e-10       9.850120466774e-15       2.025220138159e-13       7.498237383536e-17       7.431420301677e-11       7.030727483998e-12      -6.637493798731e-15 
   44       1.753595862743e-10       1.062503206891e-14       1.889506824617e-13       7.852048697019e-17       7.080303480756e-11       6.720628460122e-12      -6.986110904288e-15 
   45       1.779232807518e-10       1.143745580891e-14       1.739306693926e-13       8.214143402732e-17       6.752416190687e-11       6.432497557930e-12      -7.530464371108e-15 
   46       1.805104807157e-10       1.228795447302e-14       1.573529832401e-13       8.584523151564e-17       6.446223963306e-11       6.164173599040e-12      -8.136336419756e-15 
   47       1.831260071666e-10       1.317705130105e-14       1.390943623573e-13       8.963188999644e-17       6.158923691726e-11       5.912195221589e-12      -8.642927013233e-15 
   48       1.857728502858e-10       1.410518632259e-14       1.190431764382e-13       9.350141131778e-17       5.887306409858e-11       5.672804128413e-12      -8.906572066455e-15 
   49       1.884523930813e-10       1.507257449792e-14       9.718784384008e-14       9.745377939651e-17       5.630847315414e-11       5.445502749285e-12      -8.949903201690e-15 
   50       1.911639132552e-10       1.607930487379e-14       7.355180748396e-14       1.014889668374e-16       5.389329143901e-11       5.230342231628e-12      -8.852206916520e-15 
   51       1.939042773309e-10       1.712537554019e-14       4.816938290208e-14       1.056069373335e-16       5.161921692329e-11       5.026880481811e-12      -8.708720389364e-15 
   52       1.966677506291e-10       1.821068990295e-14       2.108623437407e-14       1.098076455252e-16       4.947138766466e-11       4.834146518994e-12      -8.631466028135e-15 
   53       1.994483912388e-10       1.933513185798e-14      -7.658395024561e-15       1.140910371502e-16       4.743304501804e-11       4.650991466285e-12      -8.720851380433e-15 
   54       2.022483920509e-10       2.049882258746e-14      -3.809145380246e-14       1.184570498657e-16       4.550192205150e-11       4.477329537281e-12      -8.969974215561e-15 
   55       2.050715526344e-10       2.170192330079e-14      -7.026085136122e-14       1.229056123914e-16       4.367731894657e-11       4.313154034179e-12      -9.337164676973e-15 
   56       2.079208031632e-10       2.294456170342e-14      -1.042188396179e-13       1.274366441097e-16       4.195516606188e-11       4.158159645110e-12      -9.772683599145e-15 
   57       2.107981227360e-10       2.422683157781e-14      -1.400223019041e-13       1.320500549373e-16       4.032780697950e-11       4.011723009177e-12      -1.021833128523e-14 
   58       2.137044576958e-10       2.554879236434e-14      -1.777330418645e-13       1.367457451954e-16       3.878378155147e-11       3.872883281502e-12      -1.060705628470e-14 
   59       2.166401244188e-10       2.691038124089e-14      -2.174004022303e-13       1.415236126641e-16       3.731097870355e-11       3.740606362380e-12      -1.087867401338e-14 
   60       2.196063124213e-10       2.831112647065e-14      -2.590037514418e-13       1.463835759516e-16       3.590744258654e-11       3.614693380518e-12      -1.103217382891e-14 
   61       2.226037865813e-10       2.975036662618e-14      -3.024971275586e-13       1.513255563336e-16       3.457269696036e-11       3.495049213078e-12      -1.108488937365e-14 
   62       2.256323694363e-10       3.122732892150e-14      -3.478254302709e-13       1.563494711587e-16       3.330449545880e-11       3.381407753024e-12      -1.105760849422e-14 
   63       2.286908759257e-10       3.274112582692e-14      -3.949241108118e-13       1.614552339635e-16       3.209871886503e-11       3.273322089900e-12      -1.097472811551e-14 
   64       2.317770481335e-10       3.429075168376e-14      -4.437188618681e-13       1.666427545863e-16       3.094927238706e-11       3.170154690604e-12      -1.086440911468e-14 
   65       2.348885873326e-10       3.587518831045e-14      -4.941419669566e-13       1.719119525179e-16       2.984976624492e-11       3.071251531730e-12      -1.075254890941e-14 
   66       2.380266507385e-10       3.749375541958e-14      -5.461860695173e-13       1.772627999830e-16       2.879920185026e-11       2.976529415407e-12      -1.064286768123e-14 
   67       2.411929808416e-10       3.914582858102e-14      -5.998612705185e-13       1.826952882139e-16       2.779730978983e-11       2.885995851542e-12      -1.053286914934e-14 
   68       2.443888395335e-10       4.083073644881e-14      -6.551796268005e-13       1.882094154952e-16       2.684282092028e-11       2.799571495355e-12      -1.041963299750e-14 
   69       2.476149735430e-10       4.254776042463e-14      -7.121553069862e-13       1.938051876483e-16       2.593341352645e-11       2.717085473654e-12      -1.029979681693e-14 
   70       2.508715798722e-10       4.429613432132e-14      -7.708047473922e-13       1.994826185161e-16       2.506566047976e-11       2.638270711108e-12      -1.016953804929e-14 
   71       2.541582712333e-10       4.607504402634e-14      -8.311468079388e-13       2.052417304476e-16       2.423497639652e-11       2.562759256524e-12      -1.002455592957e-14 
   72       2.574745590272e-10       4.788358789968e-14      -8.931923971274e-13       2.110825644160e-16       2.343679626527e-11       2.490179587242e-12      -9.861554693483e-15 
   73       2.608214864194e-10       4.972064991501e-14      -9.569106949436e-13       2.170052115439e-16       2.267049067202e-11       2.420480531590e-12      -9.683062927902e-15 
   74       2.642002477302e-10       5.158500144646e-14      -1.022256698010e-12       2.230097885334e-16       2.193611010821e-11       2.353661366660e-12      -9.493510969586e-15 
   75       2.676116763061e-10       5.347533716460e-14      -1.089181092968e-12       2.290964292615e-16       2.123319578486e-11       2.289673043775e-12      -9.297827548950e-15 
   76       2.710562217717e-10       5.539027380347e-14      -1.157630171957e-12       2.352652854842e-16       2.056075490667e-11       2.228415843025e-12      -9.101456008442e-15 
   77       2.745339272821e-10       5.732834892755e-14      -1.227545748089e-12       2.415165275417e-16       1.991723594606e-11       2.169737027811e-12      -8.910370520927e-15 
   78       2.780444067752e-10       5.928801969882e-14      -1.298865070932e-12       2.478503450622e-16       1.930050391725e-11       2.113428499391e-12      -8.731092308062e-15 
   79       2.815868222243e-10       6.126766164372e-14      -1.371520741985e-12       2.542669476673e-16       1.870781565034e-11       2.059224451417e-12      -8.570705858675e-15 
   80       2.851603141178e-10       6.326562535700e-14      -1.445446834522e-12       2.607665598862e-16       1.813650067282e-11       2.006867613005e-12      -8.435190105895e-15 
   81       2.887654290422e-10       6.528042066655e-14      -1.520598663035e-12       2.673494033342e-16       1.758619442763e-11       1.956326386551e-12      -8.324042513528e-15 
   82       2.924028996563e-10       6.731056235063e-14      -1.596936308851e-12       2.740157127113e-16       1.705694956741e-11       1.907611314259e-12      -8.234746611738e-15 
   83       2.960731993505e-10       6.935451488416e-14      -1.674418750615e-12       2.807657419046e-16       1.654855331495e-11       1.860708780234e-12      -8.164359360373e-15 
   84       2.997765278921e-10       7.141069227866e-14      -1.753003894664e-12       2.875997645862e-16       1.606051580406e-11       1.815579935182e-12      -8.109496162872e-15 
   85       3.035127970708e-10       7.347745792213e-14      -1.832648605399e-12       2.945180748100e-16       1.559205842043e-11       1.772159621115e-12      -8.066315880180e-15 
   86       3.072816163441e-10       7.555312441897e-14      -1.913308735661e-12       3.015209876095e-16       1.514210214251e-11       1.730355296046e-12      -8.030505844657e-15 
   87       3.110822784825e-10       7.763595342990e-14      -1.994939157103e-12       3.086088395949e-16       1.470925588236e-11       1.690045958690e-12      -7.997266873988e-15 
   88       3.149137452155e-10       7.972415551189e-14      -2.077493790568e-12       3.157819895503e-16       1.429180482655e-11       1.651081073168e-12      -7.961298285099e-15 
   89       3.187750140544e-10       8.181591303775e-14      -2.160924161950e-12       3.230408091619e-16       1.388811852313e-11       1.613317358070e-12      -7.917946518980e-15 
   90       3.226663160006e-10       8.390945342436e-14      -2.245174743977e-12       3.303856522318e-16       1.349797392071e-11       1.576738111322e-12      -7.866890175825e-15 
   91       3.265880801456e-10       8.600298715012e-14      -2.330186936269e-12       3.378168817129e-16       1.312141935580e-11       1.541350709447e-12      -7.809008120604e-15 
   92       3.305405606958e-10       8.809468588082e-14      -2.415900482962e-12       3.453348795915e-16       1.275836798649e-11       1.507149908563e-12      -7.745269743931e-15 
   93       3.345238283274e-10       9.018268265540e-14      -2.502253480995e-12       3.529400473369e-16       1.240859242159e-11       1.474117336338e-12      -7.676737408346e-15 
   94       3.385377615433e-10       9.226507207154e-14      -2.589182388392e-12       3.606328063510e-16       1.207171934992e-11       1.442220983948e-12      -7.604568894602e-15 
   95       3.425820380283e-10       9.433991047143e-14      -2.676622032547e-12       3.684135984177e-16       1.174722416942e-11       1.411414698036e-12      -7.530019847948e-15 
   96       3.466561260053e-10       9.640521612737e-14      -2.764505618506e-12       3.762828861523e-16       1.143442561644e-11       1.381637672663e-12      -7.454446224416e-15 
   97       3.507592755917e-10       9.845896942748e-14      -2.852764737253e-12       3.842411534512e-16       1.113248039487e-11       1.352813941270e-12      -7.379306737102e-15 
   98       3.548905101544e-10       1.004991130614e-13      -2.941329373994e-12       3.922889059409e-16       1.084037780538e-11       1.324851868633e-12      -7.306165302454e-15 
   99       3.590488718408e-10       1.025235996309e-13      -3.030129009455e-12       4.004266735782e-16       1.055717126744e-11       1.297665731042e-12      -7.236364006268e-15 
  100       3.632342165348e-10       1.045305417759e-13      -3.119096083859e-12       4.086550178960e-16       1.028272191276e-11       1.271245042737e-12      -7.169983859788e-15 
  101       3.674465159651e-10       1.065180837561e-13      -3.208163041266e-12       4.169745266232e-16       1.001705082808e-11       1.245594150856e-12      -7.106740703330e-15 
  102       3.716856080833e-10       1.084843566744e-13      -3.297261301586e-12       4.253858120961e-16       9.760109090862e-12       1.220710785969e-12      -7.046300026500e-15 
  103       3.759511915008e-10       1.104274792372e-13      -3.386321282116e-12       4.338895117338e-16       9.511775269900e-12       1.196585821773e-12      -6.988275420782e-15 
  104       3.802428199259e-10       1.123455585148e-13      -3.475272419067e-12       4.424862885136e-16       9.271852925964e-12       1.173203034784e-12      -6.932227032117e-15 
  105       3.845598966003e-10       1.142366907020e-13      -3.564043189103e-12       4.511768314466e-16       9.040068112418e-12       1.150538864030e-12      -6.877660013490e-15 
  106       3.889016687359e-10       1.160989618789e-13      -3.652561130867e-12       4.599618560536e-16       8.816066875858e-12       1.128562170743e-12      -6.824022977512e-15 
  107       3.932672219523e-10       1.179304487710e-13      -3.740752866519e-12       4.688421048401e-16       8.599412756736e-12       1.107233998055e-12      -6.770706449008e-15 
