# dimensionless total lensed [l(l+1)/2pi] C_l's
# for l=2 to 2500, i.e. number of multipoles equal to 2499
#
# -> if you prefer output in CAMB/HealPix/LensPix units/order, set 'format' to 'camb' in input file
# -> if you don't want to see such a header, set 'headers' to 'no' in input file
# -> for CMB lensing (phi), these are C_l^phi-phi for the lensing potential.
#    Remember the conversion factors:
#    C_l^dd (deflection) = l(l+1) C_l^phi-phi
#    C_l^gg (shear/convergence) = 1/4 (l(l+1))^2 C_l^phi-phi
#
# 1:l     2:TT                     3:EE                     4:TE                     5:BB                     6:phiphi                 7:TPhi                   8:Ephi               
    2       1.476358914228e-10       4.265714300814e-15       3.432624717683e-13       2.254392518507e-19       8.010167653596e-09       5.091160902838e-10      -1.844054807520e-12 
    3       1.378308085160e-10       5.365650143034e-15       3.899594332194e-13       4.509686585793e-19       4.914143352841e-09       3.574743421779e-10      -1.382214301400e-12 
    4       1.291670840821e-10       4.533330934526e-15       3.654461307781e-13       7.518131291728e-19       3.406714842794e-09       2.691053833660e-10      -8.874534599272e-13 
    5       1.227682456135e-10       2.950292645320e-15       3.108580123961e-13       1.128088332013e-18       2.537578583895e-09       2.117221352438e-10      -4.762996988559e-13 
    6       1.183636073834e-10       1.620172518097e-15       2.497701165346e-13       1.579935045421e-18       1.979121691352e-09       1.717777571982e-10      -1.794144274719e-13 
    7       1.154594820738e-10       8.805770127139e-16       1.957356791821e-13       2.107516774388e-18       1.594550203412e-09       1.426100910784e-10       3.887120307475e-15 
    8       1.136477443457e-10       5.843597860517e-16       1.546140588558e-13       2.711017038847e-18       1.316250706240e-09       1.205661492816e-10       9.141987861837e-14 
    9       1.126772268879e-10       4.744363517913e-16       1.275342311401e-13       3.390636406164e-18       1.107208842789e-09       1.034764260417e-10       1.092994141220e-13 
   10       1.123118849636e-10       4.013520502623e-16       1.129634661068e-13       4.146589346209e-18       9.455329043804e-10       8.993589890767e-11       8.543735923988e-14 
   11       1.124014380721e-10       3.370825309199e-16       1.081395433048e-13       4.979100990602e-18       8.103910024261e-10       7.966253937285e-11       4.490657236161e-14 
   12       1.128476523757e-10       2.987845909444e-16       1.099726150813e-13       5.888403878293e-18       7.084815191191e-10       7.052096387468e-11       5.317724436942e-15 
   13       1.135792720385e-10       2.925666057061e-16       1.156897801288e-13       6.874734767599e-18       6.247735142307e-10       6.286182894386e-11      -2.268528834309e-14 
   14       1.145111556601e-10       3.078056859236e-16       1.233071407673e-13       7.938331590351e-18       5.550801555360e-10       5.636233771703e-11      -3.568567884187e-14 
   15       1.156351071139e-10       3.346212270065e-16       1.316409327809e-13       9.079430616916e-18       4.963867982268e-10       5.087515804814e-11      -3.539855228047e-14 
   16       1.169378386585e-10       3.734577275195e-16       1.401006131964e-13       1.029826389202e-17       4.464590048950e-10       4.613512085132e-11      -2.671785437900e-14 
   17       1.183340509167e-10       4.304071202332e-16       1.485575609134e-13       1.159505699064e-17       4.036086236972e-10       4.198711880659e-11      -1.523811085038e-14 
   18       1.198393510687e-10       5.092887752671e-16       1.572784440063e-13       1.297002699721e-17       3.664033319346e-10       3.833663418060e-11      -5.747465477305e-15 
   19       1.214676386485e-10       6.095427196273e-16       1.664764416660e-13       1.442338167128e-17       3.342453953294e-10       3.516107489479e-11      -2.820004413025e-16 
   20       1.231638960202e-10       7.287156388197e-16       1.762717713366e-13       1.595531685337e-17       3.059141403084e-10       3.237592296693e-11       2.853728957636e-16 
   21       1.249334373098e-10       8.665718008844e-16       1.865509380193e-13       1.756601779222e-17       2.809662878748e-10       2.992067094870e-11      -2.929531561891e-15 
   22       1.267685402487e-10       1.023286457707e-15       1.970433181341e-13       1.925565643725e-17       2.588029459026e-10       2.770526572516e-11      -7.752427850267e-15 
   23       1.286656917700e-10       1.198870325447e-15       2.073928526697e-13       2.102439438096e-17       2.391288390128e-10       2.571654085823e-11      -1.245328192102e-14 
   24       1.306030018129e-10       1.393223216637e-15       2.171773407773e-13       2.287237969495e-17       2.214963824187e-10       2.393817603299e-11      -1.542001488692e-14 
   25       1.325889141400e-10       1.607037320172e-15       2.261091731280e-13       2.479975039904e-17       2.056677186512e-10       2.233575622925e-11      -1.622745007822e-14 
   26       1.346269971042e-10       1.841383725769e-15       2.339641784329e-13       2.680663230565e-17       1.913343844326e-10       2.085797480740e-11      -1.499289349143e-14 
   27       1.367248694055e-10       2.097964951235e-15       2.407213113327e-13       2.889314667948e-17       1.784224381621e-10       1.950504243226e-11      -1.239704260435e-14 
   28       1.388732552097e-10       2.378864668215e-15       2.464583374570e-13       3.105940319605e-17       1.667755534881e-10       1.828119218413e-11      -9.532716679953e-15 
   29       1.410480829275e-10       2.686175916888e-15       2.512776073005e-13       3.330550012834e-17       1.561112273553e-10       1.717736383830e-11      -7.560539990538e-15 
   30       1.432533700201e-10       3.021032690164e-15       2.551939003428e-13       3.563153669223e-17       1.463710780177e-10       1.618355209298e-11      -6.679093310149e-15 
   31       1.454915988939e-10       3.384184273474e-15       2.582049054150e-13       3.803760457751e-17       1.374833676482e-10       1.527842669853e-11      -6.748220450217e-15 
   32       1.477562186929e-10       3.776306412643e-15       2.602968476527e-13       4.052378712951e-17       1.293081231100e-10       1.443364204722e-11      -7.531517476452e-15 
   33       1.500501323883e-10       4.198278587954e-15       2.613618572480e-13       4.309016923785e-17       1.218010002841e-10       1.364567702578e-11      -8.655470556482e-15 
   34       1.523716784309e-10       4.650995788456e-15       2.612480605966e-13       4.573683065308e-17       1.148955913554e-10       1.291426598105e-11      -9.620552268548e-15 
   35       1.547141017491e-10       5.135317908940e-15       2.598032542692e-13       4.846384525728e-17       1.084892300364e-10       1.223546834632e-11      -9.945010833937e-15 
   36       1.570845799150e-10       5.652162686300e-15       2.569583005075e-13       5.127128803596e-17       1.025653908118e-10       1.160837801388e-11      -9.656427950367e-15 
   37       1.594903030199e-10       6.202438718080e-15       2.526718487095e-13       5.415923043627e-17       9.710563340583e-11       1.102994895168e-11      -8.969907959777e-15 
   38       1.619325456089e-10       6.787017273636e-15       2.469086962419e-13       5.712773854246e-17       9.205259904561e-11       1.049270356313e-11      -8.163572731442e-15 
   39       1.644082251129e-10       7.406711476206e-15       2.396457857660e-13       6.017687324410e-17       8.733072207016e-11       9.987421502220e-12      -7.517722718118e-15 
   40       1.669169096719e-10       8.062212116037e-15       2.308918001886e-13       6.330669076767e-17       8.292559591869e-11       9.513289641853e-12      -7.096508459747e-15 
   41       1.694550343797e-10       8.754125265183e-15       2.206748393571e-13       6.651724235519e-17       7.882565732494e-11       9.070538175718e-12      -6.899283680205e-15 
   42       1.720133349900e-10       9.482984286170e-15       2.090381251397e-13       6.980857415749e-17       7.499850155409e-11       8.657481975496e-12      -6.918972531282e-15 
   43       1.745812256163e-10       1.024927948721e-14       1.960160130324e-13       7.318072500295e-17       7.140287537596e-11       8.271327084797e-12      -7.136689090208e-15 
   44       1.771628145642e-10       1.105356810538e-14       1.815512277656e-13       7.663371880474e-17       6.803327384596e-11       7.911290339906e-12      -7.504836297895e-15 
   45       1.797649917606e-10       1.189639152417e-14       1.655531455951e-13       8.016756983442e-17       6.488629666485e-11       7.576168104667e-12      -7.957851159095e-15 
   46       1.823927459315e-10       1.277824239166e-14       1.479195642298e-13       8.378228466479e-17       6.194725841910e-11       7.263341947773e-12      -8.415793231491e-15 
   47       1.850489472124e-10       1.369956255981e-14       1.285359210051e-13       8.747786205563e-17       5.918930857105e-11       6.968671843322e-12      -8.783512793237e-15 
   48       1.877348033907e-10       1.466072955777e-14       1.072986238221e-13       9.125429060396e-17       5.658170269502e-11       6.687718799356e-12      -8.978241829582e-15 
   49       1.904518879581e-10       1.566201631136e-14       8.419464520569e-14       9.511154117812e-17       5.411942662041e-11       6.420069485047e-12      -9.023504930648e-15 
   50       1.932003102414e-10       1.670361652845e-14       5.924302157100e-14       9.904957215459e-17       5.180041101616e-11       6.166047169523e-12      -8.980251544283e-15 
   51       1.959779131661e-10       1.778565259288e-14       3.247313675977e-14       1.030683312446e-16       4.961670629409e-11       5.925450716646e-12      -8.921347529422e-15 
   52       1.987800902359e-10       1.890817291871e-14       3.925170456875e-15       1.071677552655e-16       4.755406949945e-11       5.697515613527e-12      -8.932193467467e-15 
   53       2.016019314191e-10       2.007118865746e-14      -2.636518318059e-14       1.113477727680e-16       4.559643727974e-11       5.481233054538e-12      -9.088191724503e-15 
   54       2.044457299180e-10       2.127480099134e-14      -5.841820508451e-14       1.156083132337e-16       4.374164605303e-11       5.276493228568e-12      -9.378921958844e-15 
   55       2.073150867324e-10       2.251910196142e-14      -9.227112036125e-14       1.199492998448e-16       4.198903417779e-11       5.083168098179e-12      -9.765545515252e-15 
   56       2.102126672632e-10       2.380413700648e-14      -1.279637337946e-13       1.243706467295e-16       4.033470614922e-11       4.900755657834e-12      -1.020190555423e-14 
   57       2.131401159401e-10       2.512990396730e-14      -1.655386409588e-13       1.288722588535e-16       3.877132435682e-11       4.728355975215e-12      -1.063417466112e-14 
   58       2.160979708482e-10       2.649635209093e-14      -2.050414393322e-13       1.334540319117e-16       3.728790084179e-11       4.564647232543e-12      -1.100050245523e-14 
   59       2.190861453274e-10       2.790329141341e-14      -2.465072283990e-13       1.381158620366e-16       3.587282225097e-11       4.408247762529e-12      -1.124566255231e-14 
   60       2.221056972696e-10       2.935009859510e-14      -2.899159694899e-13       1.428576778055e-16       3.452421798221e-11       4.258954750097e-12      -1.136976585527e-14 
   61       2.251573205510e-10       3.083594089037e-14      -3.352271138566e-13       1.476794154876e-16       3.324163607120e-11       4.116751361754e-12      -1.139025724385e-14 
   62       2.282407493844e-10       3.235985581125e-14      -3.823921536944e-13       1.525810101000e-16       3.202292507216e-11       3.981435391742e-12      -1.132806376570e-14 
   63       2.313546921664e-10       3.392074709378e-14      -4.313543684760e-13       1.575623956310e-16       3.086413541532e-11       3.852608387916e-12      -1.120775069813e-14 
   64       2.344967653233e-10       3.551738066417e-14      -4.820485712842e-13       1.626235052651e-16       2.975942076423e-11       3.729664777634e-12      -1.105767760986e-14 
   65       2.376645777029e-10       3.714853825051e-14      -5.344149314693e-13       1.677642838859e-16       2.870265124381e-11       3.611962889149e-12      -1.090415997740e-14 
   66       2.408593992652e-10       3.881352509025e-14      -5.884444148950e-13       1.729847281609e-16       2.769287179325e-11       3.499404538340e-12      -1.075216635488e-14 
   67       2.440831533970e-10       4.051176285335e-14      -6.441425421319e-13       1.782848553720e-16       2.672982688063e-11       3.391959112617e-12      -1.060080009480e-14 
   68       2.473373015909e-10       4.224264185366e-14      -7.015162987578e-13       1.836646924418e-16       2.581230082582e-11       3.289486828448e-12      -1.044892167323e-14 
   69       2.506228094749e-10       4.400552142475e-14      -7.605742754347e-13       1.891242765023e-16       2.493806704231e-11       3.191732945219e-12      -1.029513707482e-14 
   70       2.539401128417e-10       4.579973029590e-14      -8.213268079852e-13       1.946636554615e-16       2.410383727908e-11       3.098321979113e-12      -1.013778617776e-14 
   71       2.572890836787e-10       4.762456696801e-14      -8.837861174688e-13       2.002828885715e-16       2.330521086251e-11       3.008751916971e-12      -9.974931138745e-15 
   72       2.606694515980e-10       4.947921461460e-14      -9.479568852487e-13       2.059820515278e-16       2.253780644164e-11       2.922524311249e-12      -9.805174661549e-15 
   73       2.640822372652e-10       5.136246603860e-14      -1.013805572481e-12       2.117612516380e-16       2.180102151890e-11       2.839576332931e-12      -9.630322451421e-15 
   74       2.675285340087e-10       5.327294635460e-14      -1.081285437224e-12       2.176206166037e-16       2.109490619316e-11       2.759921580828e-12      -9.453213207929e-15 
   75       2.710090536262e-10       5.520919223712e-14      -1.150345500675e-12       2.235602909074e-16       2.041902124063e-11       2.683518910513e-12      -9.276941230727e-15 
   76       2.745241028120e-10       5.716965034511e-14      -1.220930468868e-12       2.295804364828e-16       1.977241435460e-11       2.610269750488e-12      -9.104863751635e-15 
   77       2.780735595836e-10       5.915267574632e-14      -1.292980654369e-12       2.356812333864e-16       1.915359638505e-11       2.540015418366e-12      -8.940608266722e-15 
   78       2.816568497089e-10       6.115653034179e-14      -1.366431897977e-12       2.418628804683e-16       1.856051757835e-11       2.472534437050e-12      -8.788079868394e-15 
   79       2.852729231327e-10       6.317938129029e-14      -1.441215490417e-12       2.481255960437e-16       1.799054381690e-11       2.407539850905e-12      -8.651468577474e-15 
   80       2.889207236388e-10       6.521938313871e-14      -1.517263905196e-12       2.544696113111e-16       1.744111070927e-11       2.344752410936e-12      -8.534206771661e-15 
   81       2.926007436271e-10       6.727494410567e-14      -1.594529315990e-12       2.608951478154e-16       1.691186895134e-11       2.284140671769e-12      -8.435616826012e-15 
   82       2.963136975792e-10       6.934450338265e-14      -1.672968167214e-12       2.674024372779e-16       1.640286991102e-11       2.225717887215e-12      -8.353691940436e-15 
   83       3.000600385900e-10       7.142645151035e-14      -1.752535677349e-12       2.739917290295e-16       1.591390983506e-11       2.169468585630e-12      -8.286082409695e-15 
   84       3.038399439285e-10       7.351913035326e-14      -1.833185868260e-12       2.806632905479e-16       1.544451864155e-11       2.115347291074e-12      -8.230083512831e-15 
   85       3.076533005986e-10       7.562083307416e-14      -1.914871594502e-12       2.874174079937e-16       1.499394871237e-11       2.063277244471e-12      -8.182623402583e-15 
   86       3.114996909002e-10       7.772980410873e-14      -1.997544572634e-12       2.942543867479e-16       1.456116368558e-11       2.013149124762e-12      -8.140250994820e-15 
   87       3.153783779900e-10       7.984423914007e-14      -2.081155410529e-12       3.011745519481e-16       1.414482724796e-11       1.964819770070e-12      -8.099123857957e-15 
   88       3.192882914425e-10       8.196228507325e-14      -2.165653636688e-12       3.081782490259e-16       1.374329192739e-11       1.918110898851e-12      -8.054996102382e-15 
   89       3.232283999377e-10       8.408205797438e-14      -2.250986491339e-12       3.152658408642e-16       1.335499127414e-11       1.872852784587e-12      -8.004163091439e-15 
   90       3.271989277997e-10       8.620170016822e-14      -2.337095018540e-12       3.224376975900e-16       1.297971133920e-11       1.829025919048e-12      -7.946491808373e-15 
   91       3.312003035787e-10       8.831933209213e-14      -2.423917412203e-12       3.296942061623e-16       1.261749892852e-11       1.786639318616e-12      -7.882845754091e-15 
   92       3.352327813934e-10       9.043303536915e-14      -2.511390210347e-12       3.370357740877e-16       1.226827087758e-11       1.745686952087e-12      -7.814172635926e-15 
   93       3.392964322915e-10       9.254085305167e-14      -2.599448305858e-12       3.444628299065e-16       1.193180888713e-11       1.706147135290e-12      -7.741506591468e-15 
   94       3.433911356103e-10       9.464078986515e-14      -2.688024957246e-12       3.519758236791e-16       1.160775435890e-11       1.667981925708e-12      -7.665970412395e-15 
   95       3.475165703375e-10       9.673081245177e-14      -2.777051799412e-12       3.595752274720e-16       1.129560323134e-11       1.631136517094e-12      -7.588777768297e-15 
   96       3.516722064712e-10       9.880884961411e-14      -2.866458854406e-12       3.672615358441e-16       1.099470081538e-11       1.595538634094e-12      -7.511235430512e-15 
   97       3.558572963810e-10       1.008727925589e-13      -2.956174542189e-12       3.750352663326e-16       1.070423663009e-11       1.561097926864e-12      -7.434745495950e-15 
   98       3.600708661683e-10       1.029204951405e-13      -3.046125691395e-12       3.828969599397e-16       1.042323923845e-11       1.527705365691e-12      -7.360807610925e-15 
   99       3.643119499195e-10       1.049498258509e-13      -3.136238580330e-12       3.908471805527e-16       1.015079881732e-11       1.495258738529e-12      -7.290694925396e-15 
  100       3.685803489996e-10       1.069588316632e-13      -3.226442204940e-12       3.988865120626e-16       9.886782001287e-12       1.463744573034e-12      -7.224424777590e-15 
  101       3.728759647571e-10       1.089455979561e-13      -3.316665495872e-12       4.070155617387e-16       9.631209167659e-12       1.433166747444e-12      -7.161645668684e-15 
  102       3.771985596021e-10       1.109081996974e-13      -3.406836352479e-12       4.152349617251e-16       9.384033361731e-12       1.403521137523e-12      -7.101948816559e-15 
  103       3.815477513119e-10       1.128447023155e-13      -3.496881666073e-12       4.235453695139e-16       9.145137892927e-12       1.374795327583e-12      -7.044866424854e-15 
  104       3.859230073347e-10       1.147531625701e-13      -3.586727343174e-12       4.319474684186e-16       8.914333930953e-12       1.346968321499e-12      -6.989869952007e-15 
  105       3.903236390952e-10       1.166316294233e-13      -3.676298328760e-12       4.404419680469e-16       8.691358101931e-12       1.320010253726e-12      -6.936368380305e-15 
  106       3.947487962989e-10       1.184781449101e-13      -3.765518629513e-12       4.490296047745e-16       8.475870084547e-12       1.293882100323e-12      -6.883706484928e-15 
  107       3.991974612367e-10       1.202907450096e-13      -3.854311337070e-12       4.577111422182e-16       8.267450206193e-12       1.268535389966e-12      -6.831163102998e-15 
