# dimensionless total [l(l+1)/2pi] C_l's
# for l=2 to 3000, i.e. number of multipoles equal to 2999
#
# -> if you prefer output in CAMB/HealPix/LensPix units/order, set 'format' to 'camb' in input file
# -> if you don't want to see such a header, set 'headers' to 'no' in input file
# -> for CMB lensing (phi), these are C_l^phi-phi for the lensing potential.
#    Remember the conversion factors:
#    C_l^dd (deflection) = l(l+1) C_l^phi-phi
#    C_l^gg (shear/convergence) = 1/4 (l(l+1))^2 C_l^phi-phi
#
# 1:l     2:TT                     3:EE                     4:TE                     5:BB                     6:phiphi                 7:TPhi                   8:Ephi               
    2       1.286907855835e-10       4.085263437982e-15       3.625563672374e-13       0.000000000000e+00       8.645367582524e-09       3.919782895974e-10      -1.838403833630e-12 
    3       1.233632633693e-10       5.334196135146e-15       4.020899489575e-13       0.000000000000e+00       5.282098224035e-09       2.803831323869e-10      -1.407200789869e-12 
    4       1.178665529077e-10       4.728746405176e-15       3.750142182416e-13       0.000000000000e+00       3.653984137266e-09       2.133744329390e-10      -9.391198320170e-13 
    5       1.136830069902e-10       3.239212820621e-15       3.197204689115e-13       0.000000000000e+00       2.716578831762e-09       1.690451580812e-10      -5.399555371698e-13 
    6       1.108336869888e-10       1.849730306954e-15       2.581186173498e-13       0.000000000000e+00       2.115392462505e-09       1.377699878619e-10      -2.399280414697e-13 
    7       1.090399084685e-10       9.979687457493e-16       2.030674645195e-13       0.000000000000e+00       1.701948114428e-09       1.147555870862e-10      -4.248776570823e-14 
    8       1.081018691958e-10       6.258215067714e-16       1.602713949615e-13       0.000000000000e+00       1.403038405085e-09       9.730441150702e-11       6.452464341788e-14 
    9       1.077804926182e-10       4.946859431429e-16       1.311247847141e-13       0.000000000000e+00       1.178909299541e-09       8.370953210735e-11       1.016000068670e-13 
   10       1.078899371546e-10       4.251884965804e-16       1.144837953920e-13       0.000000000000e+00       1.005979215572e-09       7.287377959018e-11       9.231531103759e-14 
   11       1.083802411032e-10       3.594802731652e-16       1.078268791942e-13       0.000000000000e+00       8.604536838005e-10       6.492886103854e-11       5.947933464161e-14 
   12       1.091572036032e-10       3.089753860767e-16       1.082380450848e-13       0.000000000000e+00       7.517309353754e-10       5.744570184877e-11       2.047103680572e-14 
   13       1.101455461194e-10       2.894844097997e-16       1.130222829705e-13       0.000000000000e+00       6.624972616911e-10       5.141486401532e-11      -1.185708650189e-14 
   14       1.112899906172e-10       2.973196622508e-16       1.201128894477e-13       0.000000000000e+00       5.882770586545e-10       4.615521169554e-11      -3.186784046287e-14 
   15       1.125741240218e-10       3.198587779876e-16       1.281905407048e-13       0.000000000000e+00       5.258152321922e-10       4.162929401095e-11      -3.858757467070e-14 
   16       1.140104009984e-10       3.511183541714e-16       1.364605893733e-13       0.000000000000e+00       4.727176794140e-10       3.778117867423e-11      -3.475886119510e-14 
   17       1.155046238108e-10       3.947981694070e-16       1.446515562834e-13       0.000000000000e+00       4.271765459394e-10       3.448518118974e-11      -2.497605058715e-14 
   18       1.170953001528e-10       4.576194840428e-16       1.529372567603e-13       0.000000000000e+00       3.876594528697e-10       3.159684452583e-11      -1.408079865312e-14 
   19       1.187914489312e-10       5.412937057805e-16       1.615307150646e-13       0.000000000000e+00       3.535252110883e-10       2.905214261412e-11      -5.106620780239e-15 
   20       1.205251439329e-10       6.449487993727e-16       1.706116102289e-13       0.000000000000e+00       3.234678986454e-10       2.675698368971e-11      -4.923350603039e-16 
   21       1.223164210289e-10       7.674417310359e-16       1.802121266298e-13       0.000000000000e+00       2.970125949484e-10       2.471457615407e-11      -2.770389643793e-16 
   22       1.241800404571e-10       9.072728698089e-16       1.902449122383e-13       0.000000000000e+00       2.735207387720e-10       2.292203904834e-11      -3.291694637430e-15 
   23       1.260987573991e-10       1.064842821699e-15       2.004357623428e-13       0.000000000000e+00       2.526766243680e-10       2.133116857151e-11      -7.966048540830e-15 
   24       1.280292106401e-10       1.240894594037e-15       2.103930971555e-13       0.000000000000e+00       2.340030437061e-10       1.986433895165e-11      -1.240362567775e-14 
   25       1.299913918668e-10       1.435238366299e-15       2.197745845224e-13       0.000000000000e+00       2.172460089168e-10       1.852420235310e-11      -1.545748763983e-14 
   26       1.320100080250e-10       1.647535758808e-15       2.282571381915e-13       0.000000000000e+00       2.020769165190e-10       1.732488434492e-11      -1.632865576599e-14 
   27       1.340905609270e-10       1.879173040503e-15       2.357299088048e-13       0.000000000000e+00       1.884165011769e-10       1.625743977940e-11      -1.525249457936e-14 
   28       1.362129542390e-10       2.132303883285e-15       2.421633443084e-13       0.000000000000e+00       1.760984009875e-10       1.528892325695e-11      -1.297576744608e-14 
   29       1.383431561361e-10       2.409153264108e-15       2.475604382116e-13       0.000000000000e+00       1.648225522706e-10       1.437705132001e-11      -1.039977672811e-14 
   30       1.404883648252e-10       2.710951277554e-15       2.519777542982e-13       0.000000000000e+00       1.545266046859e-10       1.352672836491e-11      -8.069469398340e-15 
   31       1.426602486242e-10       3.038576440467e-15       2.555180336641e-13       0.000000000000e+00       1.451341616110e-10       1.275412228926e-11      -6.502388395160e-15 
   32       1.448621025704e-10       3.392858457195e-15       2.582829944079e-13       0.000000000000e+00       1.364965840301e-10       1.206793568806e-11      -6.148903328688e-15 
   33       1.470986130286e-10       3.774721116284e-15       2.602151181625e-13       0.000000000000e+00       1.285666325169e-10       1.145627030916e-11      -6.770352449586e-15 
   34       1.493674563708e-10       4.185082076833e-15       2.611969120146e-13       0.000000000000e+00       1.212737723857e-10       1.089344477874e-11      -7.820431405163e-15 
   35       1.516604526979e-10       4.624808964485e-15       2.610995736814e-13       0.000000000000e+00       1.145091140942e-10       1.035118327605e-11      -8.723206429400e-15 
   36       1.539806027369e-10       5.094712187100e-15       2.598149802490e-13       0.000000000000e+00       1.082550125200e-10       9.828886447653e-12      -9.316562937780e-15 
   37       1.563293917258e-10       5.595541617020e-15       2.572328278267e-13       0.000000000000e+00       1.024918419866e-10       9.333098167774e-12      -9.555465029538e-15 
   38       1.587013058874e-10       6.127982335396e-15       2.532310764079e-13       0.000000000000e+00       9.715882365255e-11       8.869296291895e-12      -9.394768917384e-15 
   39       1.610878265920e-10       6.692670708732e-15       2.477047978649e-13       0.000000000000e+00       9.217593635929e-11       8.441120761200e-12      -8.823751917877e-15 
   40       1.634929015957e-10       7.290260949505e-15       2.406666171807e-13       0.000000000000e+00       8.752787116724e-11       8.048105794117e-12      -7.983349187572e-15 
   41       1.659214756739e-10       7.921373173497e-15       2.321790999821e-13       0.000000000000e+00       8.320234823541e-11       7.686923494682e-12      -7.089247224036e-15 
   42       1.683747976126e-10       8.586571264219e-15       2.223294105487e-13       0.000000000000e+00       7.916506587849e-11       7.351744235720e-12      -6.403810131665e-15 
   43       1.708518421857e-10       9.286393604279e-15       2.111979080467e-13       0.000000000000e+00       7.537237637879e-11       7.035984036284e-12      -6.165156976524e-15 
   44       1.733550571474e-10       1.002146443215e-14       1.987488596577e-13       0.000000000000e+00       7.181841971353e-11       6.738668910203e-12      -6.341234826731e-15 
   45       1.758857313437e-10       1.079241171956e-14       1.849080523377e-13       0.000000000000e+00       6.849956749881e-11       6.459719718430e-12      -6.803855354969e-15 
   46       1.784420495762e-10       1.159983513429e-14       1.695920226463e-13       0.000000000000e+00       6.540027260812e-11       6.198105139805e-12      -7.394016639581e-15 
   47       1.810188069298e-10       1.244430493824e-14       1.527074036200e-13       0.000000000000e+00       6.249213994301e-11       5.951766126739e-12      -7.920077588332e-15 
   48       1.836100914651e-10       1.332632071266e-14       1.341675348793e-13       0.000000000000e+00       5.974266536407e-11       5.718260713276e-12      -8.208045726430e-15 
   49       1.862188930917e-10       1.424617634727e-14       1.139493536169e-13       0.000000000000e+00       5.714653366314e-11       5.497089645412e-12      -8.273462834538e-15 
   50       1.888497125024e-10       1.520405509987e-14       9.205141833679e-14       0.000000000000e+00       5.470154658577e-11       5.287896523863e-12      -8.194835222494e-15 
   51       1.915056983759e-10       1.620006337215e-14       6.847826783375e-14       0.000000000000e+00       5.239929973119e-11       5.089766851755e-12      -8.066563472010e-15 
   52       1.941885131522e-10       1.723422755807e-14       4.324064884363e-14       0.000000000000e+00       5.022474659635e-11       4.901189242976e-12      -7.999775705541e-15 
   53       1.968988153711e-10       1.830653578470e-14       1.634682947867e-14       0.000000000000e+00       4.816092128210e-11       4.720561856802e-12      -8.094207572670e-15 
   54       1.996381612717e-10       1.941708299075e-14      -1.222660685005e-14       0.000000000000e+00       4.620553585537e-11       4.547953881689e-12      -8.343435057918e-15 
   55       2.024073582413e-10       2.056595766110e-14      -4.251266872759e-14       0.000000000000e+00       4.435789107121e-11       4.383729396150e-12      -8.706725234976e-15 
   56       2.052057851190e-10       2.175319895893e-14      -7.454584271483e-14       0.000000000000e+00       4.261387656906e-11       4.228026217596e-12      -9.135484389262e-15 
   57       2.080312838233e-10       2.297879545640e-14      -1.083622394599e-13       0.000000000000e+00       4.096575121289e-11       4.080739971323e-12      -9.572877312685e-15 
   58       2.108800509786e-10       2.424268386527e-14      -1.439997398097e-13       0.000000000000e+00       3.940192343141e-11       3.941508159507e-12      -9.953446598408e-15 
   59       2.137482578113e-10       2.554472338658e-14      -1.814875021209e-13       0.000000000000e+00       3.791014156159e-11       3.809817135418e-12      -1.021880139355e-14 
   60       2.166375952662e-10       2.688461468653e-14      -2.208113068711e-13       0.000000000000e+00       3.648842894575e-11       3.685388218331e-12      -1.036980288688e-14 
   61       2.195508273861e-10       2.826195982758e-14      -2.619404079634e-13       0.000000000000e+00       3.513630458519e-11       3.567853249560e-12      -1.042584654050e-14 
   62       2.224901274968e-10       2.967628294195e-14      -3.048372537578e-13       0.000000000000e+00       3.385149447732e-11       3.456628046745e-12      -1.041001887247e-14 
   63       2.254570284192e-10       3.112702813582e-14      -3.494572725456e-13       0.000000000000e+00       3.262982754918e-11       3.350900639123e-12      -1.034926147895e-14 
   64       2.284523726819e-10       3.261355739350e-14      -3.957486580239e-13       0.000000000000e+00       3.146513159094e-11       3.249619502799e-12      -1.027453505637e-14 
   65       2.314766208248e-10       3.413517734810e-14      -4.436639178083e-13       0.000000000000e+00       3.035093634159e-11       3.151766765870e-12      -1.021366598246e-14 
   66       2.345309640294e-10       3.569123089069e-14      -4.931978435431e-13       0.000000000000e+00       2.928623571654e-11       3.057271499696e-12      -1.016775679899e-14 
   67       2.376163588208e-10       3.728102127325e-14      -5.443572224786e-13       0.000000000000e+00       2.827076349743e-11       2.966269387878e-12      -1.013005832100e-14 
   68       2.407331507407e-10       3.890378368980e-14      -5.971498963702e-13       0.000000000000e+00       2.730324134506e-11       2.878831100901e-12      -1.009280634643e-14 
   69       2.438810345766e-10       4.055868398807e-14      -6.515848759881e-13       0.000000000000e+00       2.638132528255e-11       2.794958502589e-12      -1.004718099465e-14 
   70       2.470590145911e-10       4.224481738111e-14      -7.076724556278e-13       0.000000000000e+00       2.550155217862e-11       2.714580856561e-12      -9.983266044945e-15 
   71       2.502653647499e-10       4.396120715893e-14      -7.654243276206e-13       0.000000000000e+00       2.465928623075e-11       2.637551032685e-12      -9.890008274955e-15 
   72       2.534984008769e-10       4.570682911478e-14      -8.248455641147e-13       0.000000000000e+00       2.384991157038e-11       2.563694375102e-12      -9.758395023212e-15 
   73       2.567590570866e-10       4.748069311516e-14      -8.859085261278e-13       0.000000000000e+00       2.307279402804e-11       2.492974595963e-12      -9.591783360547e-15 
   74       2.600487343273e-10       4.928177493175e-14      -9.485741299588e-13       0.000000000000e+00       2.232798665625e-11       2.425353017713e-12      -9.397489352034e-15 
   75       2.633685114022e-10       5.110899122480e-14      -1.012799466214e-12       0.000000000000e+00       2.161502634751e-11       2.360736185827e-12      -9.183777763351e-15 
   76       2.667191237354e-10       5.296119884175e-14      -1.078537728639e-12       0.000000000000e+00       2.093290876786e-11       2.298973277581e-12      -8.959894874690e-15 
   77       2.701009421381e-10       5.483719411606e-14      -1.145738142950e-12       0.000000000000e+00       2.028006329029e-11       2.239853510828e-12      -8.736101294682e-15 
   78       2.735139515741e-10       5.673571216586e-14      -1.214345895663e-12       0.000000000000e+00       1.965432792829e-11       2.183103552769e-12      -8.523704774311e-15 
   79       2.769577299266e-10       5.865542619270e-14      -1.284302062929e-12       0.000000000000e+00       1.905292426931e-11       2.128384928729e-12      -8.335093020832e-15 
   80       2.804318044176e-10       6.059496338322e-14      -1.355548782768e-12       0.000000000000e+00       1.847314773832e-11       2.075376991358e-12      -8.180908617550e-15 
   81       2.839368388669e-10       6.255295733729e-14      -1.428045962794e-12       0.000000000000e+00       1.791463158754e-11       2.024048122778e-12      -8.060936576485e-15 
   82       2.874736148225e-10       6.452800350728e-14      -1.501757357719e-12       0.000000000000e+00       1.737743216630e-11       1.974427121223e-12      -7.971686755985e-15 
   83       2.910426581988e-10       6.651864301608e-14      -1.576645609197e-12       0.000000000000e+00       1.686133687551e-11       1.926520832634e-12      -7.909091396300e-15 
   84       2.946442250364e-10       6.852336226332e-14      -1.652672271757e-12       0.000000000000e+00       1.636585234797e-11       1.880313143890e-12      -7.868485009542e-15 
   85       2.982782872618e-10       7.054059253150e-14      -1.729797838731e-12       0.000000000000e+00       1.589019262874e-11       1.835763976030e-12      -7.844584269631e-15 
   86       3.019445184470e-10       7.256870959225e-14      -1.807981768190e-12       0.000000000000e+00       1.543326735545e-11       1.792808277479e-12      -7.831467902254e-15 
   87       3.056422795691e-10       7.460603331244e-14      -1.887182508871e-12       0.000000000000e+00       1.499366993868e-11       1.751355017278e-12      -7.822556574812e-15 
   88       3.093706047697e-10       7.665082726042e-14      -1.967357526114e-12       0.000000000000e+00       1.456966574227e-11       1.711286178306e-12      -7.810592786371e-15 
   89       3.131285533470e-10       7.870133335504e-14      -2.048461940739e-12       0.000000000000e+00       1.415960534647e-11       1.672486164281e-12      -7.789134936891e-15 
   90       3.169163600503e-10       8.075588290032e-14      -2.130444144483e-12       0.000000000000e+00       1.376326439598e-11       1.634937501946e-12      -7.757351966980e-15 
   91       3.207344398318e-10       8.281280232398e-14      -2.213249541346e-12       0.000000000000e+00       1.338069313162e-11       1.598638366397e-12      -7.715947289000e-15 
   92       3.245830290466e-10       8.487037981446e-14      -2.296821878494e-12       0.000000000000e+00       1.301180464255e-11       1.563572960298e-12      -7.665714100867e-15 
   93       3.284621766991e-10       8.692686545207e-14      -2.381103251405e-12       0.000000000000e+00       1.265636941496e-11       1.529710962745e-12      -7.607537960338e-15 
   94       3.323717356889e-10       8.898047134019e-14      -2.466034109027e-12       0.000000000000e+00       1.231400988063e-11       1.497006978132e-12      -7.542399359292e-15 
   95       3.363113540571e-10       9.102937173644e-14      -2.551553258928e-12       0.000000000000e+00       1.198419496559e-11       1.465399985011e-12      -7.471376298023e-15 
   96       3.402804662329e-10       9.307170318384e-14      -2.637597872446e-12       0.000000000000e+00       1.166623463872e-11       1.434812784956e-12      -7.395646859522e-15 
   97       3.442782842795e-10       9.510556464199e-14      -2.724103489841e-12       0.000000000000e+00       1.135927446041e-11       1.405151451430e-12      -7.316491783762e-15 
   98       3.483037891406e-10       9.712901761825e-14      -2.811004025451e-12       0.000000000000e+00       1.106229013115e-11       1.376304778640e-12      -7.235297041984e-15 
   99       3.523560009448e-10       9.914012672961e-14      -2.898232998226e-12       0.000000000000e+00       1.077432238125e-11       1.348170667382e-12      -7.153328647738e-15 
  100       3.564348525276e-10       1.011370876604e-13      -2.985727411100e-12       0.000000000000e+00       1.049523138569e-11       1.320740738269e-12      -7.071015131202e-15 
  101       3.605404239502e-10       1.031181176565e-13      -3.073424433223e-12       0.000000000000e+00       1.022503957573e-11       1.294026735141e-12      -6.988567742978e-15 
  102       3.646726691758e-10       1.050814173255e-13      -3.161260243355e-12       0.000000000000e+00       9.963698324754e-12       1.268034435506e-12      -6.906198966338e-15 
  103       3.688314106982e-10       1.070251712570e-13      -3.249170049862e-12       0.000000000000e+00       9.711085410136e-12       1.242763425906e-12      -6.824122330753e-15 
  104       3.730163341709e-10       1.089475486450e-13      -3.337088110727e-12       0.000000000000e+00       9.467002475073e-12       1.218206877291e-12      -6.742552225400e-15 
  105       3.772269830355e-10       1.108467039081e-13      -3.424947753553e-12       0.000000000000e+00       9.231172490443e-12       1.194351320394e-12      -6.661703712690e-15 
  106       3.814627531509e-10       1.127207773114e-13      -3.512681395568e-12       0.000000000000e+00       9.003237216654e-12       1.171176421099e-12      -6.581792341784e-15 
  107       3.857228874217e-10       1.145678955874e-13      -3.600220563631e-12       0.000000000000e+00       8.782754665491e-12       1.148654755815e-12      -6.503033962112e-15 
