# dimensionless total lensed [l(l+1)/2pi] C_l's
# for l=2 to 2500, i.e. number of multipoles equal to 2499
#
# -> if you prefer output in CAMB/HealPix/LensPix units/order, set 'format' to 'camb' in input file
# -> if you don't want to see such a header, set 'headers' to 'no' in input file
# -> for CMB lensing (phi), these are C_l^phi-phi for the lensing potential.
#    Remember the conversion factors:
#    C_l^dd (deflection) = l(l+1) C_l^phi-phi
#    C_l^gg (shear/convergence) = 1/4 (l(l+1))^2 C_l^phi-phi
#
# 1:l     2:TT                     3:EE                     4:TE                     5:BB                     6:phiphi                 7:TPhi                   8:Ephi               
    2       1.430595261759e-10       4.209569575420e-15       3.122939621040e-13       2.231944047884e-19       7.948829999422e-09       4.906024872161e-10      -1.849170857106e-12 
    3       1.356167738874e-10       5.317376821681e-15       3.632566255473e-13       4.464798455760e-19       4.857241708385e-09       3.477547316553e-10      -1.387081201402e-12 
    4       1.281768818296e-10       4.503584751951e-15       3.474747283125e-13       7.443336186380e-19       3.364099941913e-09       2.637342774815e-10      -8.928714709933e-13 
    5       1.224209039562e-10       2.935551225676e-15       3.011174526625e-13       1.116872257329e-18       2.504692196771e-09       2.087666325601e-10      -4.817514555984e-13 
    6       1.183604922098e-10       1.614018907744e-15       2.460737056373e-13       1.564237369612e-18       1.952530612155e-09       1.702536377190e-10      -1.842823858999e-13 
    7       1.156433405668e-10       8.788084300066e-16       1.956651659577e-13       2.086593108178e-18       1.572431957510e-09       1.419793301948e-10      -1.447631449412e-16 
    8       1.139396198827e-10       5.846195692324e-16       1.561347590324e-13       2.684123302553e-18       1.297465635070e-09       1.205283863262e-10       8.825590445935e-14 
    9       1.130398112282e-10       4.753808142029e-16       1.292625748430e-13       3.357028335013e-18       1.090965679400e-09       1.038514122323e-10       1.069335207274e-13 
   10       1.127074342581e-10       4.021545191982e-16       1.141637881431e-13       4.105521848136e-18       9.313523685902e-10       9.058440718064e-11       8.375681880649e-14 
   11       1.128186667246e-10       3.373289326078e-16       1.085405384190e-13       4.929827374784e-18       7.981160697141e-10       8.048287476425e-11       4.379384988125e-14 
   12       1.132774261743e-10       2.984737005969e-16       1.096791106278e-13       5.830174981293e-18       6.976242601250e-10       7.145015862531e-11       4.556907147060e-15 
   13       1.140051024463e-10       2.919117652697e-16       1.150334412469e-13       6.806798011491e-18       6.151063510127e-10       6.389531313248e-11      -2.322881182790e-14 
   14       1.149492089509e-10       3.070997740621e-16       1.225680321693e-13       7.859930013180e-18       5.464230238918e-10       5.744563818319e-11      -3.616070198884e-14 
   15       1.160563116548e-10       3.341666609527e-16       1.310548023659e-13       8.989801920085e-18       4.885940222079e-10       5.197709012958e-11      -3.585120693775e-14 
   16       1.173530454953e-10       3.733841537483e-16       1.398332058459e-13       1.019663955127e-17       4.394120265181e-10       4.724209594795e-11      -2.712769656916e-14 
   17       1.187368067225e-10       4.307016178756e-16       1.486090568369e-13       1.148066147724e-17       3.972099441738e-10       4.311155643603e-11      -1.553954838697e-14 
   18       1.202293226497e-10       5.098235939478e-16       1.575482530692e-13       1.284207712830e-17       3.605740754501e-10       3.946691407869e-11      -5.927156272846e-15 
   19       1.218495677741e-10       6.102826312573e-16       1.668350577781e-13       1.428108628055e-17       3.289136044696e-10       3.627972510189e-11      -3.594882250448e-16 
   20       1.235413100119e-10       7.297707546013e-16       1.765935013824e-13       1.579787641718e-17       3.010242124802e-10       3.347224860812e-11       2.739538900352e-16 
   21       1.253058495315e-10       8.679303224494e-16       1.867788929374e-13       1.739262465436e-17       2.764683504948e-10       3.099204763745e-11      -2.909521107048e-15 
   22       1.271309154182e-10       1.024755430615e-15       1.972085799232e-13       1.906549495977e-17       2.546555947138e-10       2.875617579427e-11      -7.724869414588e-15 
   23       1.290155410897e-10       1.200386370775e-15       2.075112669996e-13       2.081664169862e-17       2.352946954798e-10       2.674585762669e-11      -1.243046106608e-14 
   24       1.309424652835e-10       1.394949721599e-15       2.172260214034e-13       2.264620638800e-17       2.179444979216e-10       2.493625044742e-11      -1.540188215893e-14 
   25       1.329203428333e-10       1.609162342372e-15       2.261108259234e-13       2.455432170519e-17       2.023704487471e-10       2.329893800424e-11      -1.621188544023e-14 
   26       1.349514685109e-10       1.844044259532e-15       2.340048284048e-13       2.654110928550e-17       1.882685382341e-10       2.179247194191e-11      -1.497879450977e-14 
   27       1.370431689078e-10       2.101232711633e-15       2.408623502047e-13       2.860668785834e-17       1.755657978673e-10       2.041703689945e-11      -1.238303610396e-14 
   28       1.391860459228e-10       2.382724398542e-15       2.466961574565e-13       3.075116609638e-17       1.641082322859e-10       1.917265979883e-11      -9.516682928592e-15 
   29       1.413557269968e-10       2.690531347955e-15       2.515441015548e-13       3.297464279835e-17       1.536176632604e-10       1.804561508560e-11      -7.539816839597e-15 
   30       1.435557573957e-10       3.025824337286e-15       2.554324963259e-13       3.527721922093e-17       1.440365481174e-10       1.702560096557e-11      -6.651882386644e-15 
   31       1.457879363851e-10       3.389441597921e-15       2.584016774154e-13       3.765899086180e-17       1.352942238825e-10       1.609238595220e-11      -6.714311147186e-15 
   32       1.480452318045e-10       3.782148463603e-15       2.604800864669e-13       4.012004652257e-17       1.272528848347e-10       1.521885253785e-11      -7.492446019452e-15 
   33       1.503317920979e-10       4.204826628173e-15       2.615548196387e-13       4.266047725974e-17       1.198688635407e-10       1.440268458671e-11      -8.613645170693e-15 
   34       1.526479898482e-10       4.658341517415e-15       2.614512053495e-13       4.528037049676e-17       1.130767976808e-10       1.364489946864e-11      -9.579050884361e-15 
   35       1.549887917010e-10       5.143520081018e-15       2.599949279259e-13       4.797980892191e-17       1.067756510127e-10       1.294265260352e-11      -9.907344701558e-15 
   36       1.573602532772e-10       5.661265326369e-15       2.571186563372e-13       5.075887494160e-17       1.009491467919e-10       1.229488786114e-11      -9.625248312520e-15 
   37       1.597672247913e-10       6.212474619200e-15       2.527915210251e-13       5.361764779724e-17       9.557912710006e-11       1.169782658929e-11      -8.946376826051e-15 
   38       1.622080403339e-10       6.798005586170e-15       2.469915639694e-13       5.655620246165e-17       9.060914388650e-11       1.114292157169e-11      -8.146980266184e-15 
   39       1.646771240077e-10       7.418660677460e-15       2.397075542510e-13       5.957460876199e-17       8.596483864570e-11       1.061983389808e-11      -7.505624485490e-15 
   40       1.671756719044e-10       8.075141687150e-15       2.309438588845e-13       6.267292824340e-17       8.163203525685e-11       1.012763176654e-11      -7.086699047952e-15 
   41       1.697033773355e-10       8.768074792917e-15       2.207181418920e-13       6.585121633568e-17       7.759936038440e-11       9.666689611883e-12      -6.890516379536e-15 
   42       1.722549242455e-10       9.498017858030e-15       2.090608672852e-13       6.910952318609e-17       7.383493920334e-11       9.235441672806e-12      -6.911202374210e-15 
   43       1.748231888772e-10       1.026548393363e-14       1.959951536328e-13       7.244789055354e-17       7.029819291454e-11       8.831200510691e-12      -7.131025319704e-15 
   44       1.774111906751e-10       1.107102983738e-14       1.814673106982e-13       7.586634136396e-17       6.698370874022e-11       8.453325024531e-12      -7.502477860331e-15 
   45       1.800230473577e-10       1.191518856621e-14       1.653957259211e-13       7.936488687690e-17       6.388814454288e-11       8.100750303419e-12      -7.959748396286e-15 
   46       1.826603651231e-10       1.279844213534e-14       1.476891140039e-13       8.294352929324e-17       6.099705725764e-11       7.770977014488e-12      -8.422584521123e-15 
   47       1.853219858473e-10       1.372121938644e-14       1.282458437093e-13       8.660226154692e-17       5.828403720919e-11       7.459962268637e-12      -8.795457423974e-15 
   48       1.880056133825e-10       1.468388444450e-14       1.069732951962e-13       9.034106503191e-17       5.571884454513e-11       7.163338030165e-12      -8.995163845113e-15 
   49       1.907138244214e-10       1.568670335523e-14       8.385395527644e-14       9.415990251099e-17       5.329655060730e-11       6.880727128862e-12      -9.044782322644e-15 
   50       1.934493176808e-10       1.672986427734e-14       5.889679696488e-14       9.805872285031e-17       5.101512381562e-11       6.612456373947e-12      -9.004766410495e-15 
   51       1.962130296709e-10       1.781348340931e-14       3.211921581819e-14       1.020374626040e-16       4.886674837220e-11       6.358294849778e-12      -8.947419674215e-15 
   52       1.990039777659e-10       1.893760232049e-14       3.547378699061e-15       1.060960457004e-16       4.683741787000e-11       6.117412513412e-12      -8.957510988777e-15 
   53       2.018205104315e-10       2.010222741276e-14      -2.679535582687e-14       1.102343878063e-16       4.491133512292e-11       5.888719443859e-12      -9.109984755116e-15 
   54       2.046647965653e-10       2.130746636230e-14      -5.892747484474e-14       1.144524114568e-16       4.308637537347e-11       5.672081308466e-12      -9.394946212633e-15 
   55       2.075392170534e-10       2.255342211123e-14      -9.287970406765e-14       1.187500342692e-16       4.136189105645e-11       5.467344286491e-12      -9.774459011789e-15 
   56       2.104449629357e-10       2.384015292581e-14      -1.286841060938e-13       1.231271644919e-16       3.973405336259e-11       5.273956905612e-12      -1.020342454606e-14 
   57       2.133819374775e-10       2.516767149396e-14      -1.663742317839e-13       1.275837008864e-16       3.819564736597e-11       5.090944599731e-12      -1.062923686899e-14 
   58       2.163486582404e-10       2.653594402278e-14      -2.059852716378e-13       1.321195326103e-16       3.673586715133e-11       4.916884266765e-12      -1.099143761119e-14 
   59       2.193432031932e-10       2.794479520699e-14      -2.475431607355e-13       1.367345509738e-16       3.534329148634e-11       4.750298596404e-12      -1.123597379169e-14 
   60       2.223665280308e-10       2.939359941272e-14      -2.910285951584e-13       1.414286881638e-16       3.401608310421e-11       4.591003773720e-12      -1.136262152460e-14 
   61       2.254197475295e-10       3.088151605496e-14      -3.364049117965e-13       1.462018873214e-16       3.275380012438e-11       4.439030343208e-12      -1.138798519654e-14 
   62       2.285030979824e-10       3.240757341123e-14      -3.836281815183e-13       1.510540917377e-16       3.155432868945e-11       4.294219973614e-12      -1.133200977886e-14 
   63       2.316158746624e-10       3.397066452828e-14      -4.326469860928e-13       1.559852451384e-16       3.041378590768e-11       4.156214245226e-12      -1.121813075795e-14 
   64       2.347563692840e-10       3.556954312881e-14      -4.834021951115e-13       1.609952919698e-16       2.932642279537e-11       4.024443437159e-12      -1.107342406575e-14 
   65       2.379228280463e-10       3.720297867359e-14      -5.358394038176e-13       1.660841894677e-16       2.828621129857e-11       3.898292433140e-12      -1.092308054709e-14 
   66       2.411167020565e-10       3.887026891137e-14      -5.899498092833e-13       1.712519461993e-16       2.729221401554e-11       3.777664462715e-12      -1.077213246413e-14 
   67       2.443399755317e-10       4.057082888172e-14      -6.457376179055e-13       1.764985922174e-16       2.634418154941e-11       3.662517059681e-12      -1.062011356149e-14 
   68       2.475941726071e-10       4.230404168983e-14      -7.032082769951e-13       1.818241685996e-16       2.544091975883e-11       3.552689337122e-12      -1.046638438388e-14 
   69       2.508803233450e-10       4.406925886512e-14      -7.623686058506e-13       1.872287280630e-16       2.458023980750e-11       3.447895729054e-12      -1.031012345227e-14 
   70       2.541989297458e-10       4.586580071978e-14      -8.232269268310e-13       1.927123355784e-16       2.375890821375e-11       3.347719732078e-12      -1.015031844009e-14 
   71       2.575499317579e-10       4.769295670744e-14      -8.857931964285e-13       1.982750689856e-16       2.297259690012e-11       3.251607647028e-12      -9.985757349460e-15 
   72       2.609331006547e-10       4.954990206087e-14      -9.500700144564e-13       2.039170205388e-16       2.221699670122e-11       3.159011720354e-12      -9.815663825020e-15 
   73       2.643493821176e-10       5.143542838320e-14      -1.016023362381e-12       2.096383005208e-16       2.149151633473e-11       3.069865284894e-12      -9.641763885001e-15 
   74       2.677997507335e-10       5.334816175103e-14      -1.083606458933e-12       2.154390354368e-16       2.079620648522e-11       2.984187937165e-12      -9.466601800131e-15 
   75       2.712847816489e-10       5.528664032680e-14      -1.152768308444e-12       2.213193677702e-16       2.013063626674e-11       2.901941419672e-12      -9.292936888575e-15 
   76       2.748046263379e-10       5.724931280607e-14      -1.223453623657e-12       2.272794566181e-16       1.949386983535e-11       2.823026773510e-12      -9.123749398462e-15 
   77       2.783589883692e-10       5.923453686459e-14      -1.295602748540e-12       2.333194783279e-16       1.888444300164e-11       2.747281490971e-12      -8.962246390426e-15 
   78       2.819470991736e-10       6.124057760553e-14      -1.369151581091e-12       2.394396271328e-16       1.830033984331e-11       2.674476668139e-12      -8.811867620128e-15 
   79       2.855676938110e-10       6.326560600663e-14      -1.444031496156e-12       2.456401157880e-16       1.773896931763e-11       2.604314157503e-12      -8.676291420794e-15 
   80       2.892195303108e-10       6.530777951222e-14      -1.520175088556e-12       2.519211680376e-16       1.719780893004e-11       2.536503146273e-12      -8.558518681136e-15 
   81       2.929031048697e-10       6.736550334405e-14      -1.597534720923e-12       2.582829931108e-16       1.667651592589e-11       2.471011471292e-12      -8.457928633140e-15 
   82       2.966191916830e-10       6.943721194903e-14      -1.676067071166e-12       2.647258079368e-16       1.617514176332e-11       2.407852955365e-12      -8.372720099267e-15 
   83       3.003683118804e-10       7.152129085392e-14      -1.755727628370e-12       2.712498453973e-16       1.569348675788e-11       2.347010502721e-12      -8.300776965674e-15 
   84       3.041507193603e-10       7.361607663371e-14      -1.836470723394e-12       2.778553548118e-16       1.523108904791e-11       2.288434722472e-12      -8.239656992437e-15 
   85       3.079663866226e-10       7.571985687998e-14      -1.918249559460e-12       2.845426024218e-16       1.478721355999e-11       2.232042552058e-12      -8.186580623774e-15 
   86       3.118149906024e-10       7.783087016926e-14      -2.001016242751e-12       2.913118718758e-16       1.436084097434e-11       2.177715880695e-12      -8.138419798270e-15 
   87       3.156958985038e-10       7.994730603143e-14      -2.084721813007e-12       2.981634647139e-16       1.395065669023e-11       2.125300172829e-12      -8.091686759099e-15 
   88       3.196081536330e-10       8.206730491806e-14      -2.169316274115e-12       3.050977008522e-16       1.355503979145e-11       2.074603091582e-12      -8.042522864253e-15 
   89       3.235508255772e-10       8.418897667542e-14      -2.254747229917e-12       3.121149208707e-16       1.317244906886e-11       2.025442158346e-12      -7.987563276674e-15 
   90       3.275241545730e-10       8.631045935337e-14      -2.340955479688e-12       3.192154922289e-16       1.280267453850e-11       1.977799300142e-12      -7.926710875781e-15 
   91       3.315285613867e-10       8.842986960631e-14      -2.427878784882e-12       3.263998049223e-16       1.244576282908e-11       1.931688122328e-12      -7.860778890481e-15 
   92       3.355642903635e-10       9.054528525194e-14      -2.515453211983e-12       3.336682702719e-16       1.210163258646e-11       1.887106397667e-12      -7.790655660585e-15 
   93       3.396314007189e-10       9.265474551689e-14      -2.603613142199e-12       3.410213214349e-16       1.177006938752e-11       1.844035424406e-12      -7.717306568820e-15 
   94       3.437297578308e-10       9.475625128228e-14      -2.692291281164e-12       3.484594139174e-16       1.145072065399e-11       1.802439384345e-12      -7.641775972855e-15 
   95       3.478590245314e-10       9.684776532931e-14      -2.781418668635e-12       3.559830260855e-16       1.114309056631e-11       1.762264700913e-12      -7.565189137318e-15 
   96       3.520186523990e-10       9.892721258487e-14      -2.870924688191e-12       3.635926596771e-16       1.084653497743e-11       1.723439397237e-12      -7.488754165820e-15 
   97       3.562078730496e-10       1.009924803672e-13      -2.960737076932e-12       3.712888403137e-16       1.056025632672e-11       1.685872454223e-12      -7.413763932973e-15 
   98       3.604256894293e-10       1.030414186312e-13      -3.050781935177e-12       3.790721180121e-16       1.028329855373e-11       1.649453168622e-12      -7.341598016411e-15 
   99       3.646711131971e-10       1.050718922407e-13      -3.140984902872e-12       3.869430648632e-16       1.001476623724e-11       1.614077244806e-12      -7.273417145074e-15 
  100       3.689439340637e-10       1.070819456999e-13      -3.231274857955e-12       3.949022665871e-16       9.754528422738e-12       1.579730674522e-12      -7.209192985666e-15 
  101       3.732440437530e-10       1.090696623196e-13      -3.321580762290e-12       4.029503307267e-16       9.502605501263e-12       1.546416600744e-12      -7.148543883616e-15 
  102       3.775711939793e-10       1.110331151373e-13      -3.411830565227e-12       4.110878898455e-16       9.258951539675e-12       1.514129330045e-12      -7.091028314524e-15 
  103       3.819249907219e-10       1.129703677936e-13      -3.501951227445e-12       4.193156020049e-16       9.023451912394e-12       1.482854014712e-12      -7.036143089111e-15 
  104       3.863048885001e-10       1.148794754086e-13      -3.591868744794e-12       4.276341512414e-16       8.795920933124e-12       1.452566334866e-12      -6.983321558161e-15 
  105       3.907101846479e-10       1.167584854577e-13      -3.681508172135e-12       4.360442480443e-16       8.576099486572e-12       1.423232180577e-12      -6.931931817468e-15 
  106       3.951400135889e-10       1.186054386482e-13      -3.770793647178e-12       4.445466298326e-16       8.363652660173e-12       1.394807333988e-12      -6.881274912779e-15 
  107       3.995933411108e-10       1.204183697952e-13      -3.859648414328e-12       4.531420614330e-16       8.158167375816e-12       1.367237151427e-12      -6.830583044740e-15 
