# dimensionless total [l(l+1)/2pi] C_l's
# for l=2 to 3000, i.e. number of multipoles equal to 2999
#
# -> if you prefer output in CAMB/HealPix/LensPix units/order, set 'format' to 'camb' in input file
# -> if you don't want to see such a header, set 'headers' to 'no' in input file
# -> for CMB lensing (phi), these are C_l^phi-phi for the lensing potential.
#    Remember the conversion factors:
#    C_l^dd (deflection) = l(l+1) C_l^phi-phi
#    C_l^gg (shear/convergence) = 1/4 (l(l+1))^2 C_l^phi-phi
#
# 1:l     2:TT                     3:EE                     4:TE                     5:BB                     6:phiphi                 7:TPhi                   8:Ephi               
    2       1.360314555234e-10       4.162875016195e-15       3.669752900084e-13       0.000000000000e+00       8.464148740445e-09       4.390572419459e-10      -1.836961065391e-12 
    3       1.285247010357e-10       5.363674716857e-15       4.071131067166e-13       0.000000000000e+00       5.182445503533e-09       3.101816906030e-10      -1.397070370241e-12 
    4       1.216353049832e-10       4.677596916661e-15       3.777203100293e-13       0.000000000000e+00       3.587610235267e-09       2.341329633840e-10      -9.207452661451e-13 
    5       1.165629322116e-10       3.149194829121e-15       3.198766027895e-13       0.000000000000e+00       2.669312777226e-09       1.844257033809e-10      -5.176856723240e-13 
    6       1.131235082115e-10       1.773280924439e-15       2.564855696869e-13       0.000000000000e+00       2.079874394279e-09       1.497076230883e-10      -2.186347011826e-13 
    7       1.109664600458e-10       9.563109715130e-16       2.005906994965e-13       0.000000000000e+00       1.674419697751e-09       1.242931773012e-10      -2.575458275309e-14 
    8       1.096978745902e-10       6.097646740071e-16       1.578297984352e-13       0.000000000000e+00       1.381305906609e-09       1.050407979874e-10       7.485688905352e-14 
    9       1.091477066502e-10       4.865754168388e-16       1.293288753459e-13       0.000000000000e+00       1.161318861284e-09       9.011114347738e-11       1.054553347613e-13 
   10       1.091436330457e-10       4.158864076380e-16       1.135318764150e-13       0.000000000000e+00       9.912958301363e-10       7.830104358912e-11       9.103330773508e-14 
   11       1.094999474438e-10       3.500035997676e-16       1.076813226622e-13       0.000000000000e+00       8.484225774542e-10       6.942814779878e-11       5.509150714909e-14 
   12       1.101468807963e-10       3.031339801576e-16       1.087607271094e-13       0.000000000000e+00       7.414338696347e-10       6.149776490033e-11       1.565930296608e-14 
   13       1.110421627047e-10       2.881439840277e-16       1.140208671977e-13       0.000000000000e+00       6.535928803410e-10       5.468939008425e-11      -1.578955343717e-14 
   14       1.121405527163e-10       2.984983254535e-16       1.213612908143e-13       0.000000000000e+00       5.804930225473e-10       4.906505944703e-11      -3.362615499525e-14 
   15       1.133731111453e-10       3.219203269022e-16       1.294528589731e-13       0.000000000000e+00       5.189601435133e-10       4.434610558462e-11      -3.793340108535e-14 
   16       1.147405105785e-10       3.546556860108e-16       1.376826249469e-13       0.000000000000e+00       4.666383556529e-10       4.019324972157e-11      -3.240083000352e-14 
   17       1.162435386025e-10       4.017059760893e-16       1.458849237161e-13       0.000000000000e+00       4.217470939806e-10       3.649880421628e-11      -2.197205298703e-14 
   18       1.178098011127e-10       4.691131055573e-16       1.542268226652e-13       0.000000000000e+00       3.827827821656e-10       3.328369162018e-11      -1.139510381754e-14 
   19       1.194607633447e-10       5.577249952565e-16       1.629440684341e-13       0.000000000000e+00       3.491171399102e-10       3.052932893630e-11      -3.426482081648e-15 
   20       1.211975725314e-10       6.659180079388e-16       1.722427838727e-13       0.000000000000e+00       3.194664953250e-10       2.811974283094e-11      -9.472504131977e-17 
   21       1.230048226643e-10       7.928342528264e-16       1.820968190467e-13       0.000000000000e+00       2.933643338278e-10       2.598499059565e-11      -1.089246894666e-15 
   22       1.248356970539e-10       9.375769867266e-16       1.923267669426e-13       0.000000000000e+00       2.701820784412e-10       2.404235966688e-11      -4.891013320536e-15 
   23       1.267143882082e-10       1.100390121706e-15       2.026203113028e-13       0.000000000000e+00       2.496090874056e-10       2.230567190800e-11      -9.756350315960e-15 
   24       1.286633702724e-10       1.281678940515e-15       2.125694484176e-13       0.000000000000e+00       2.311752843112e-10       2.078952905158e-11      -1.374336838478e-14 
   25       1.306702257608e-10       1.481494359502e-15       2.218402087709e-13       0.000000000000e+00       2.146306543211e-10       1.943818169166e-11      -1.599264033458e-14 
   26       1.326999201093e-10       1.699929901199e-15       2.301320692531e-13       0.000000000000e+00       1.996515636680e-10       1.816678414717e-11      -1.611135986601e-14 
   27       1.347623413506e-10       1.938530883170e-15       2.373627843055e-13       0.000000000000e+00       1.861603695895e-10       1.697973943592e-11      -1.447548027878e-14 
   28       1.368674344573e-10       2.199530359742e-15       2.435411987463e-13       0.000000000000e+00       1.739935417452e-10       1.590327450987e-11      -1.189732056716e-14 
   29       1.390114116064e-10       2.485207077268e-15       2.487092794026e-13       0.000000000000e+00       1.628555738958e-10       1.495146430310e-11      -9.328614216912e-15 
   30       1.411984926465e-10       2.796720784145e-15       2.529236723050e-13       0.000000000000e+00       1.526849681594e-10       1.410836356961e-11      -7.275551869688e-15 
   31       1.434240822736e-10       3.134809857008e-15       2.562718402729e-13       0.000000000000e+00       1.434061003908e-10       1.333594920970e-11      -6.168966266336e-15 
   32       1.456737961090e-10       3.500159681874e-15       2.588347363074e-13       0.000000000000e+00       1.348720292440e-10       1.259156262475e-11      -6.345862419319e-15 
   33       1.479465103979e-10       3.893701219038e-15       2.605298040765e-13       0.000000000000e+00       1.270362568045e-10       1.187954234085e-11      -7.445660543664e-15 
   34       1.502373746791e-10       4.316412084190e-15       2.612086667255e-13       0.000000000000e+00       1.198294119994e-10       1.121757574815e-11      -8.776380757703e-15 
   35       1.525371268419e-10       4.769221385435e-15       2.607154669453e-13       0.000000000000e+00       1.131442456067e-10       1.061969089775e-11      -9.634175961759e-15 
   36       1.548547265357e-10       5.252961512149e-15       2.589550033146e-13       0.000000000000e+00       1.069633945308e-10       1.008448051061e-11      -9.913754085869e-15 
   37       1.572011628742e-10       5.768392244103e-15       2.558465366642e-13       0.000000000000e+00       1.012674625875e-10       9.602158778533e-12      -9.703987178064e-15 
   38       1.595826804202e-10       6.316207317254e-15       2.513053304314e-13       0.000000000000e+00       9.599639177002e-11       9.157049735421e-12      -9.129692302310e-15 
   39       1.620009958746e-10       6.897058907224e-15       2.452608928245e-13       0.000000000000e+00       9.107112109619e-11       8.732219174001e-12      -8.342279210262e-15 
   40       1.644555215439e-10       7.511652946216e-15       2.377199727459e-13       0.000000000000e+00       8.647657154317e-11       8.326472613172e-12      -7.481253874280e-15 
   41       1.669408782161e-10       8.160678169748e-15       2.287245034093e-13       0.000000000000e+00       8.220067777535e-11       7.942325934703e-12      -6.704133235467e-15 
   42       1.694455928907e-10       8.844776985251e-15       2.183359697186e-13       0.000000000000e+00       7.820962836069e-11       7.581277251989e-12      -6.199152508086e-15 
   43       1.719570340593e-10       9.564549804102e-15       2.066098584972e-13       0.000000000000e+00       7.446037217788e-11       7.243832256998e-12      -6.130609136167e-15 
   44       1.744793630041e-10       1.032057592197e-14       1.935068872216e-13       0.000000000000e+00       7.094712675572e-11       6.929836432019e-12      -6.450265805487e-15 
   45       1.770202501342e-10       1.111339468763e-14       1.789559474394e-13       0.000000000000e+00       6.766629106641e-11       6.638070867950e-12      -7.030175909576e-15 
   46       1.795856770303e-10       1.194349695182e-14       1.628777742276e-13       0.000000000000e+00       6.460248073137e-11       6.366038710715e-12      -7.712303277399e-15 
   47       1.821797326020e-10       1.281132286545e-14       1.451843582059e-13       0.000000000000e+00       6.172760942291e-11       6.109869348586e-12      -8.306750121465e-15 
   48       1.848046173807e-10       1.371725417221e-14       1.257942636043e-13       0.000000000000e+00       5.900953224015e-11       5.865453278619e-12      -8.641682132449e-15 
   49       1.874611334579e-10       1.466159365456e-14       1.046850604551e-13       0.000000000000e+00       5.644300035785e-11       5.632448557680e-12      -8.733880248942e-15 
   50       1.901479824312e-10       1.564457611096e-14       8.185466216723e-14       0.000000000000e+00       5.402585385912e-11       5.411239103966e-12      -8.663220759170e-15 
   51       1.928613808604e-10       1.666637093414e-14       5.730692794615e-14       0.000000000000e+00       5.174980145726e-11       5.201770412075e-12      -8.526019927190e-15 
   52       1.955948670445e-10       1.772707962843e-14       3.105188634120e-14       0.000000000000e+00       4.959998975329e-11       5.003516530078e-12      -8.435899550529e-15 
   53       1.983419614542e-10       1.882676035743e-14       3.097592415328e-15       0.000000000000e+00       4.755966738659e-11       4.815720197936e-12      -8.495794266709e-15 
   54       2.011053959538e-10       1.996551471230e-14      -2.657727353732e-14       0.000000000000e+00       4.562657705263e-11       4.638261772427e-12      -8.703530432692e-15 
   55       2.038899210473e-10       2.114341892839e-14      -5.800266114293e-14       0.000000000000e+00       4.380002785297e-11       4.470956185813e-12      -9.023476072021e-15 
   56       2.066995880392e-10       2.236049748903e-14      -9.120952470104e-14       0.000000000000e+00       4.207595712125e-11       4.313278258157e-12      -9.412937212265e-15 
   57       2.095376754612e-10       2.361672177620e-14      -1.262299504292e-13       0.000000000000e+00       4.044671330306e-11       4.164341127702e-12      -9.821813453082e-15 
   58       2.124066154994e-10       2.491200872122e-14      -1.630972837079e-13       0.000000000000e+00       3.890083883590e-11       4.022874681247e-12      -1.019225353429e-14 
   59       2.153079646269e-10       2.624617822557e-14      -2.018364937891e-13       0.000000000000e+00       3.742622310600e-11       3.887570420674e-12      -1.047161947461e-14 
   60       2.182424746341e-10       2.761881694086e-14      -2.424323659668e-13       0.000000000000e+00       3.602090947812e-11       3.758258574264e-12      -1.065567695573e-14 
   61       2.212099080933e-10       2.902938041357e-14      -2.848541344409e-13       0.000000000000e+00       3.468441871124e-11       3.634966710252e-12      -1.075484412222e-14 
   62       2.242089250017e-10       3.047722884267e-14      -3.290643958443e-13       0.000000000000e+00       3.341449876923e-11       3.517568374677e-12      -1.078186943603e-14 
   63       2.272370107068e-10       3.196162433271e-14      -3.750189055540e-13       0.000000000000e+00       3.220702194068e-11       3.405773943321e-12      -1.075193838252e-14 
   64       2.302904038323e-10       3.348172814683e-14      -4.226663740025e-13       0.000000000000e+00       3.105588195869e-11       3.299121473656e-12      -1.068278017652e-14 
   65       2.333655160762e-10       3.503667345624e-14      -4.719598906263e-13       0.000000000000e+00       2.995467838318e-11       3.197108304919e-12      -1.059133170611e-14 
   66       2.364637029852e-10       3.662580766592e-14      -5.228944652766e-13       0.000000000000e+00       2.890241544979e-11       3.099638800149e-12      -1.048266850254e-14 
   67       2.395873776933e-10       3.824849665055e-14      -5.754770968086e-13       0.000000000000e+00       2.789882979685e-11       3.006655355352e-12      -1.035891336165e-14 
   68       2.427385784270e-10       3.990405316337e-14      -6.297159662896e-13       0.000000000000e+00       2.694265780177e-11       2.918000904890e-12      -1.022248246403e-14 
   69       2.459189381619e-10       4.159173620100e-14      -6.856205585579e-13       0.000000000000e+00       2.603158269420e-11       2.833413710439e-12      -1.007609577993e-14 
   70       2.491296542784e-10       4.331075036836e-14      -7.432017837835e-13       0.000000000000e+00       2.516218166920e-11       2.752522149937e-12      -9.922787474372e-15 
   71       2.523714582189e-10       4.506024524346e-14      -8.024720990278e-13       0.000000000000e+00       2.432987300043e-11       2.674839506544e-12      -9.765916312086e-15 
   72       2.556448325235e-10       4.683929534817e-14      -8.634366677231e-13       0.000000000000e+00       2.353009452500e-11       2.599890249097e-12      -9.608660745070e-15 
   73       2.589507776005e-10       4.864683702094e-14      -9.260646034208e-13       0.000000000000e+00       2.276221851011e-11       2.527628515926e-12      -9.452368850078e-15 
   74       2.622901379873e-10       5.048171822254e-14      -9.903124002604e-13       0.000000000000e+00       2.202629616880e-11       2.458090915809e-12      -9.297908990537e-15 
   75       2.656633437355e-10       5.234271579698e-14      -1.056132324333e-12       0.000000000000e+00       2.132186851876e-11       2.391269982486e-12      -9.146155733333e-15 
   76       2.690703857155e-10       5.422853439358e-14      -1.123472330629e-12       0.000000000000e+00       2.064794160902e-11       2.327111965702e-12      -8.997988488591e-15 
   77       2.725107909206e-10       5.613780538901e-14      -1.192275979981e-12       0.000000000000e+00       2.000296174663e-11       2.265514622254e-12      -8.854290149444e-15 
   78       2.759835977716e-10       5.806908580941e-14      -1.262482356013e-12       0.000000000000e+00       1.938479072330e-11       2.206325007026e-12      -8.715945731810e-15 
   79       2.794873314209e-10       6.002085725239e-14      -1.334025982087e-12       0.000000000000e+00       1.879068104215e-11       2.149337264037e-12      -8.583841014168e-15 
   80       2.830205745391e-10       6.199157029654e-14      -1.406843030980e-12       0.000000000000e+00       1.821795824676e-11       2.094346598896e-12      -8.458732446557e-15 
   81       2.865838481630e-10       6.397978898311e-14      -1.480891378592e-12       0.000000000000e+00       1.766625887567e-11       2.041326850355e-12      -8.340833851880e-15 
   82       2.901780139337e-10       6.598406957556e-14      -1.556133897573e-12       0.000000000000e+00       1.713563776017e-11       1.990279868798e-12      -8.230155129469e-15 
   83       2.938036941695e-10       6.800291706886e-14      -1.632532506882e-12       0.000000000000e+00       1.662588394335e-11       1.941180923312e-12      -8.126620924387e-15 
   84       2.974612581971e-10       7.003478495395e-14      -1.710048205266e-12       0.000000000000e+00       1.613650900129e-11       1.893977533133e-12      -8.030066883297e-15 
   85       3.011508086835e-10       7.207807498210e-14      -1.788641104735e-12       0.000000000000e+00       1.566673536424e-11       1.848588299081e-12      -7.940235910336e-15 
   86       3.048721679682e-10       7.413113692940e-14      -1.868270464041e-12       0.000000000000e+00       1.521548463777e-11       1.804901735000e-12      -7.856774422983e-15 
   87       3.086248643946e-10       7.619226836118e-14      -1.948894722159e-12       0.000000000000e+00       1.478136592396e-11       1.762775099199e-12      -7.779228607933e-15 
   88       3.124081186417e-10       7.825971439639e-14      -2.030471531761e-12       0.000000000000e+00       1.436266414252e-11       1.722033225890e-12      -7.707040676970e-15 
   89       3.162211656071e-10       8.033169293147e-14      -2.112955911312e-12       0.000000000000e+00       1.395774846940e-11       1.682510933564e-12      -7.639612883694e-15 
   90       3.200643077142e-10       8.240647535990e-14      -2.196294296153e-12       0.000000000000e+00       1.356639653679e-11       1.644190421302e-12      -7.576519243709e-15 
   91       3.239380024208e-10       8.448231813977e-14      -2.280429611566e-12       0.000000000000e+00       1.318865740616e-11       1.607083372774e-12      -7.517320282746e-15 
   92       3.278425328566e-10       8.655743860542e-14      -2.365303076305e-12       0.000000000000e+00       1.282444463293e-11       1.571188789454e-12      -7.461495541493e-15 
   93       3.317779991820e-10       8.863001511331e-14      -2.450854207887e-12       0.000000000000e+00       1.247353088152e-11       1.536492474893e-12      -7.408440846612e-15 
   94       3.357443099466e-10       9.069818718779e-14      -2.537020827890e-12       0.000000000000e+00       1.213554254040e-11       1.502966518999e-12      -7.357465581753e-15 
   95       3.397411734484e-10       9.276005566703e-14      -2.623739067238e-12       0.000000000000e+00       1.180995433718e-11       1.470568782316e-12      -7.307789958568e-15 
   96       3.437680890924e-10       9.481368284878e-14      -2.710943371501e-12       0.000000000000e+00       1.149608395364e-11       1.439242380297e-12      -7.258542287730e-15 
   97       3.478243387491e-10       9.685709263628e-14      -2.798566506185e-12       0.000000000000e+00       1.119308664080e-11       1.408915167584e-12      -7.208756249945e-15 
   98       3.519089781136e-10       9.888827068404e-14      -2.886539562022e-12       0.000000000000e+00       1.089994983400e-11       1.379499222286e-12      -7.157368166970e-15 
   99       3.560210771740e-10       1.009052101283e-13      -2.974793210298e-12       0.000000000000e+00       1.061572523561e-11       1.350911793180e-12      -7.103463113627e-15 
  100       3.601604991600e-10       1.029060558535e-13      -3.063261660250e-12       0.000000000000e+00       1.034027421171e-11       1.323142641527e-12      -7.047058928547e-15 
  101       3.643272163857e-10       1.048889810259e-13      -3.151879274642e-12       0.000000000000e+00       1.007361846203e-11       1.296195323962e-12      -6.988428698776e-15 
  102       3.685210654329e-10       1.068521440216e-13      -3.240579389922e-12       0.000000000000e+00       9.815709496414e-12       1.270066328182e-12      -6.927862109406e-15 
  103       3.727417415288e-10       1.087936891249e-13      -3.329294336670e-12       0.000000000000e+00       9.566426128329e-12       1.244744817377e-12      -6.865665730850e-15 
  104       3.769887929249e-10       1.107117472266e-13      -3.417955460043e-12       0.000000000000e+00       9.325571968277e-12       1.220212374671e-12      -6.802163306111e-15 
  105       3.812616152745e-10       1.126044365226e-13      -3.506493140219e-12       0.000000000000e+00       9.092872917274e-12       1.196442747548e-12      -6.737696038052e-15 
  106       3.855594460115e-10       1.144698632121e-13      -3.594836812840e-12       0.000000000000e+00       8.867974660302e-12       1.173401592292e-12      -6.672622876664e-15 
  107       3.898813587288e-10       1.163061221958e-13      -3.682914989460e-12       0.000000000000e+00       8.650440159765e-12       1.151046218418e-12      -6.607320806339e-15 
